U-233(n,total fission) ENDF/B-VII.1
1.00000E-05 26861.4
1.25000E-05 24025.5
1.50000E-05 21932.2
2.00000E-05 18993.8
2.75000E-05 16198.0
3.50000E-05 14357.9
4.25000E-05 13029.6
5.00000E-05 12012.7
6.25000E-05 10744.4
7.50000E-05 9808.26
0.000100000 8494.16
0.000125000 7597.37
0.000150000 6935.38
0.000200000 6006.16
0.000275000 5122.00
0.000350000 4540.10
0.000425000 4120.01
0.000500000 3798.41
0.000625000 3397.31
0.000750000 3101.23
0.00100000 2685.62
0.00125000 2401.97
0.00150000 2192.58
0.00200000 1898.64
0.00275000 1618.93
0.00350000 1434.81
0.00425000 1301.88
0.00500000 1200.09
0.00625000 1073.13
0.00750000 979.381
0.0100000 847.737
0.0125000 757.848
0.0150000 691.455
0.0200000 598.175
0.0253000 531.215
0.0314750 475.581
0.0376500 434.179
0.0500000 375.523
0.0625000 334.608
0.0750000 304.126
0.0875000 280.156
0.100000 260.577
0.114950 241.299
0.140465 216.906
0.153223 209.059
0.165980 204.123
0.200000 195.595
0.207180 193.457
0.217000 190.315
0.232440 185.103
0.257710 176.881
0.272506 172.536
0.287303 168.527
0.316895 161.445
0.376080 150.385
0.500000 135.218
0.576820 127.539
0.777550 118.168
1.00000 137.761
1.15440 172.448
1.30305 234.892
1.45170 330.232
1.54885 396.820
1.59743 442.726
1.64600 524.669
1.74900 853.365
1.76730 884.067
1.82795 781.869
1.88860 560.721
1.94430 412.188
2.00000 322.289
2.06430 268.253
2.12860 256.199
2.16075 269.512
2.19290 305.166
2.22505 383.498
2.24113 451.325
2.25720 546.945
2.28020 714.553
2.30320 743.912
2.32615 512.530
2.34910 292.693
2.36234 215.422
2.37558 164.436
2.40205 107.817
2.42853 80.8577
2.45500 66.7732
2.48148 58.8044
2.50795 54.0016
2.56090 48.9898
2.61385 46.8353
2.66680 46.0336
2.77270 46.6413
2.87860 49.3766
2.98450 54.2510
3.19630 72.8494
3.35305 96.9800
3.43143 111.669
3.47061 119.657
3.50980 129.515
3.54180 141.929
3.57380 164.382
3.63340 234.387
3.66320 211.699
3.69300 161.215
3.72558 122.181
3.75815 99.0607
3.79073 84.4845
3.82330 74.5705
3.86510 65.8735
3.93910 57.0567
4.01310 53.4568
4.16110 55.9651
4.45710 86.0411
4.72855 113.238
5.00000 95.4465
5.04910 89.6682
5.18920 74.2491
5.32930 62.7535
5.46940 56.8652
5.60950 60.7610
5.70730 76.3197
5.80510 106.176
5.90290 122.739
6.00070 112.032
6.08570 101.249
6.17070 96.3054
6.25570 97.5013
6.34070 105.052
6.41513 118.059
6.48955 139.478
6.56398 174.084
6.63840 233.585
6.69415 316.202
6.72203 384.765
6.74990 486.415
6.78755 692.972
6.82520 871.802
6.84405 845.454
6.86290 732.247
6.90060 456.477
6.93610 286.862
6.96276 211.189
6.98943 161.903
7.04275 105.258
7.09608 75.6229
7.14940 58.3819
7.25605 41.0851
7.36270 36.7555
7.47520 47.6273
7.53145 48.2729
7.58770 40.1566
7.67810 30.3695
7.76850 26.1904
7.94930 23.8997
8.27110 26.3792
8.43200 29.3932
8.59290 34.7407
8.70210 40.8135
8.73690 39.9183
8.77170 36.5997
8.81140 32.9543
8.86778 30.3345
8.92415 29.5651
8.98053 29.9787
9.03690 32.2518
9.10430 40.9052
9.17170 61.2112
9.20540 72.5187
9.23910 79.2357
9.30650 77.5032
9.37840 69.3179
9.45030 63.3904
9.59410 59.2440
9.69558 61.1033
9.79705 67.1686
9.89853 79.3741
10.0000 102.510
10.1120 155.169
10.1680 203.195
10.2240 277.354
10.3000 434.909
10.3760 590.729
10.4143 594.156
10.4525 533.271
10.5290 352.579
10.5918 242.656
10.6545 174.530
10.7173 133.119
10.7800 107.542
10.9055 81.9776
11.0310 75.3006
11.1565 81.3308
11.2820 92.1318
11.3950 84.0417
11.5330 58.2647
11.6155 50.5707
11.6980 49.9233
11.8490 55.9772
12.0000 56.0770
12.1540 58.0981
12.3080 70.5210
12.3850 83.4664
12.4620 104.338
12.5390 138.675
12.6160 196.551
12.7015 303.534
12.7870 420.397
12.8298 428.380
12.8725 383.828
12.9580 239.167
13.0443 138.704
13.1305 87.7134
13.2168 63.9822
13.3030 57.1761
13.4490 74.5808
13.5270 75.4573
13.5950 77.5290
13.6780 107.944
13.7158 123.903
13.7535 126.574
13.8290 95.6189
13.9166 60.5899
14.0041 41.5791
14.0917 31.1052
14.1793 24.7717
14.3544 17.7294
14.5295 14.0840
14.7046 12.2025
14.8798 12.2497
14.9673 13.9064
15.0549 18.6568
15.0987 23.6773
15.1424 32.4555
15.1862 48.5465
15.2300 79.6081
15.2545 108.823
15.2790 150.841
15.3280 268.769
15.3525 312.443
15.3770 314.669
15.4260 232.573
15.4470 194.081
15.4679 164.928
15.4827 157.706
15.4975 168.415
15.5123 175.012
15.5270 163.397
15.5410 148.350
15.5551 135.219
15.5831 115.914
15.6112 103.001
15.6393 94.0290
15.6954 83.2102
15.7515 78.3120
15.8638 80.0040
15.9760 95.8915
16.2040 171.719
16.4190 160.536
16.4330 161.882
16.4680 171.547
16.5205 206.938
16.5730 248.510
16.5993 245.745
16.6255 219.306
16.6780 144.533
16.7232 98.7461
16.7684 71.4921
16.8136 55.0707
16.8588 44.6106
16.9491 32.5338
17.0395 25.9984
17.2203 19.4514
17.4010 16.9763
17.5233 17.2371
17.6455 20.1753
17.7066 23.6334
17.7678 29.7756
17.8289 41.0826
17.8900 62.4931
17.9488 95.5901
18.0075 113.779
18.1250 62.9624
18.1838 50.8982
18.2425 48.2221
18.3013 51.6154
18.3600 60.0626
18.3830 64.7406
18.3950 67.4865
18.4303 76.6483
18.4655 86.7781
18.5360 99.7638
18.6780 75.6254
18.7295 91.2210
18.7810 128.059
18.8605 232.111
18.9400 352.054
18.9800 367.280
19.0200 339.409
19.1000 235.897
19.1563 175.957
19.2125 134.257
19.2688 106.032
19.3250 86.7231
19.4375 63.6209
19.5500 51.5472
19.7750 41.8585
20.0000 41.8038
20.2160 50.5720
20.3240 61.8313
20.4320 84.6298
20.6040 155.488
20.6468 158.700
20.6895 145.881
20.7750 104.179
20.8713 74.1705
20.9675 61.2916
21.0638 56.7858
21.1600 56.6131
21.3525 64.6227
21.4488 73.2658
21.5450 87.3105
21.6315 108.751
21.7180 148.159
21.7915 210.669
21.8650 301.874
21.8800 317.178
21.9130 332.800
21.9460 319.144
22.0120 257.557
22.0578 232.133
22.1035 230.005
22.1493 250.372
22.1950 294.156
22.2740 423.358
22.3530 525.160
22.4320 448.064
22.5110 318.542
22.6100 217.370
22.6940 171.850
22.7863 142.720
22.8785 124.256
23.0630 98.7835
23.2360 76.4924
23.4090 62.7021
23.4320 62.3284
23.4930 63.4094
23.5540 67.7440
23.6760 85.3091
23.6910 87.7840
23.7465 95.2740
23.8020 97.4613
23.9130 84.9382
23.9740 75.1408
24.1000 61.4020
24.2260 56.1829
24.5390 41.1201
24.5630 40.0527
24.6410 37.6066
24.7190 36.7852
24.8750 40.0775
24.9530 44.6968
25.0310 52.6081
25.1090 67.0200
25.1480 79.0283
25.1870 96.5964
25.2900 159.399
25.3420 145.096
25.3940 110.547
25.4040 105.008
25.4303 93.0056
25.4566 84.2879
25.5093 73.6072
25.5619 68.0689
25.6145 65.0378
25.7198 61.9747
25.8250 60.0243
26.0355 55.9410
26.2460 52.1371
26.3870 52.0540
26.4575 54.6168
26.5280 61.9220
26.6400 88.7561
26.6680 89.8742
26.6960 84.2893
26.7520 65.8665
26.7866 56.8398
26.8213 50.4630
26.8905 42.8291
26.9598 38.6954
27.0290 36.1706
27.1675 33.3527
27.3060 32.1464
27.5755 33.3482
27.8450 39.8621
28.0433 46.4464
28.1424 49.5514
28.1919 51.5295
28.2415 54.9091
28.3300 71.2249
28.3570 75.7371
28.3840 75.7480
28.4186 70.5951
28.4429 64.2273
28.5016 35.6215
28.5163 32.4094
28.5310 33.6618
28.5603 41.5822
28.6080 52.3274
28.6557 59.3010
28.7512 71.4456
28.8466 87.6202
28.9420 111.777
29.0445 143.170
29.1470 150.555
29.3520 82.2598
29.4187 68.6527
29.4853 61.7581
29.5520 61.2598
29.6186 67.0151
29.6650 67.0686
29.6881 60.5296
29.7113 50.3301
29.7577 32.8385
29.8040 25.1124
29.8473 22.5091
29.8905 21.6396
29.9770 21.7173
30.1500 24.4284
30.3230 30.5493
30.4095 36.1749
30.4960 45.0826
30.5600 53.9874
30.5980 58.7242
30.6490 64.8113
30.7000 79.8469
30.7440 96.8268
30.7898 106.536
30.8355 98.6882
30.9270 58.4870
30.9695 45.3243
31.0120 37.4799
31.0683 33.5022
31.1245 35.1067
31.2370 49.2890
31.3490 61.6685
31.4610 61.7565
31.5933 58.5513
31.7255 61.0758
31.7916 66.3592
31.8578 76.3420
31.9239 94.4241
31.9900 125.808
32.0500 162.505
32.1100 168.008
32.2300 76.8588
32.2789 56.0653
32.3278 44.4755
32.3766 38.0863
32.4255 34.6507
32.5233 32.4971
32.6210 33.8870
32.8170 43.8922
33.0130 59.2627
33.0790 63.1630
33.0940 63.8396
33.1329 65.2054
33.1718 66.0318
33.2495 66.3757
33.4050 64.8006
33.7040 67.2675
34.3130 91.4230
34.4100 96.4048
34.5070 103.058
34.6025 106.913
34.6980 96.2706
34.8590 68.6936
34.8890 65.9606
34.9926 60.2884
35.0961 57.3843
35.3032 53.5166
35.7174 45.6864
35.9245 41.7088
36.1316 38.6130
36.2352 38.0845
36.3387 39.6138
36.3905 42.3308
36.4423 48.3625
36.4681 53.9222
36.4940 62.7227
36.5199 77.0997
36.5458 100.782
36.5762 143.132
36.6066 172.851
36.6228 163.421
36.6390 140.107
36.6675 97.4716
36.7027 65.2470
36.7378 48.9440
36.7730 40.2057
36.8081 35.1056
36.8784 29.7900
36.9488 27.3774
37.0894 26.4858
37.2300 30.4521
37.3435 40.3414
37.4570 59.6070
37.5138 68.0857
37.5705 68.2409
37.6840 48.0867
37.7974 30.5828
37.9108 21.2340
38.0241 16.1169
38.1375 13.0707
38.3643 10.0932
38.5910 10.1856
38.7105 11.9086
38.8300 15.4710
38.9495 21.4851
39.0690 29.8215
39.3070 44.2667
39.5450 45.8361
39.5470 45.8243
39.5513 45.7993
39.5555 45.7744
39.5641 45.7257
39.5811 45.6339
39.6153 45.4902
39.6835 45.4601
39.8200 46.2741
40.0960 43.0974
40.1280 42.7882
40.2250 42.6536
40.3220 43.4903
40.5160 44.8109
40.7100 39.2221
40.8070 35.0963
40.9040 33.4002
40.9750 36.6552
41.0105 41.5517
41.0460 50.4878
41.1242 74.9279
41.1633 60.8884
41.2024 41.0835
41.2484 27.1960
41.2943 20.3373
41.3403 16.7278
41.3862 14.6633
41.4781 12.6491
41.5700 11.9799
41.7675 12.6662
41.9650 14.1977
42.1625 15.1785
42.2613 16.1575
42.3600 18.4787
42.4198 21.2860
42.4796 26.2968
42.5393 35.8567
42.5692 43.8559
42.5991 55.3837
42.6944 110.344
42.7183 109.884
42.7421 97.5753
42.7898 63.3130
42.8304 42.7393
42.8710 30.5647
42.9117 23.3978
42.9523 19.0299
43.0335 14.4971
43.1148 12.6687
43.1960 12.2936
43.2772 13.2140
43.3585 16.1844
43.3991 19.1404
43.4397 23.8748
43.5517 47.0772
43.5797 48.3110
43.6077 44.5264
43.6636 31.5932
43.7142 22.9601
43.7648 17.9424
43.8154 15.0745
43.8660 13.3982
43.9671 11.8445
44.0683 11.4885
44.2707 12.6475
44.4730 15.9622
44.6075 18.8230
44.7420 18.7764
44.9170 12.2162
45.0110 9.57551
45.1318 8.08848
45.2525 7.75820
45.4940 7.56622
45.6385 6.77017
45.7830 5.62422
45.8553 5.25306
45.9275 5.53498
45.9636 6.30240
45.9998 8.04327
46.0359 11.8582
46.0539 15.2600
46.0720 20.3624
46.0870 26.4585
46.1249 51.7817
46.1439 66.6599
46.1628 75.1857
46.2007 64.5394
46.2386 45.3089
46.2632 36.4786
46.2877 30.2574
46.3368 22.6763
46.3859 18.5779
46.4350 16.2123
46.5331 14.0134
46.6313 13.5679
46.8277 15.9507
46.9258 18.9839
47.0240 23.9928
47.1430 34.4423
47.3360 57.2463
47.3820 55.8185
47.5300 33.8870
47.6355 22.1196
47.7410 15.1344
47.8585 10.7762
47.9760 8.64607
48.0935 8.03457
48.2111 8.79418
48.3286 11.4486
48.3873 14.0127
48.4461 18.0920
48.5048 24.8847
48.5636 37.0393
48.6224 61.0237
48.6517 81.9032
48.6811 112.998
48.7255 185.291
48.7698 253.551
48.7920 252.346
48.8142 224.136
48.8586 147.423
48.8970 100.332
48.9353 72.1923
48.9737 55.7486
49.0120 46.1565
49.0658 39.3628
49.1195 36.9729
49.2270 35.8775
49.4410 21.6673
49.5710 15.8096
49.7010 13.4128
49.8310 13.0402
49.9610 14.0670
50.2150 19.3188
50.4690 25.4521
50.6510 24.8785
50.8330 20.1768
50.9770 17.7218
51.0480 17.7868
51.1555 17.5015
51.2630 15.3154
51.4058 12.1315
51.5485 9.92951
51.6913 8.66548
51.8340 8.35035
52.0660 10.3022
52.2980 9.70565
52.4237 9.08973
52.5738 7.73723
52.6489 7.40183
52.7239 8.62193
52.7870 10.7220
52.8501 14.1009
52.9131 19.8929
52.9762 30.6979
53.0917 64.7112
53.0930 64.9194
53.0966 65.4330
53.1001 65.8598
53.1073 66.4513
53.1215 66.6339
53.1501 63.9319
53.2071 55.1987
53.2583 50.3030
53.3096 48.4237
53.4120 47.3357
53.5715 38.3041
53.7310 28.8393
53.7945 28.9078
53.8580 32.7919
53.9065 39.4280
53.9550 50.2216
54.0520 81.3130
54.1005 92.4578
54.1490 93.8761
54.2460 77.3820
54.3742 55.5481
54.5024 45.2324
54.5664 43.8461
54.6305 45.5026
54.6946 52.2457
54.7587 69.7612
54.8100 99.0578
54.8613 136.365
54.8869 142.794
54.9126 134.246
54.9638 97.9403
55.0119 71.7376
55.0600 56.6615
55.1080 48.1709
55.1561 43.3021
55.2523 39.0658
55.3484 38.6288
55.5407 44.3028
55.7330 58.2722
56.1330 100.353
56.1460 100.575
56.1940 100.246
56.2420 98.6121
56.3380 96.8230
56.4075 104.732
56.4770 123.911
56.4874 126.679
56.5102 131.095
56.5330 132.282
56.5850 122.943
56.6369 106.475
56.7230 84.9080
56.8090 73.2135
56.9178 66.6310
57.0265 65.4301
57.2440 74.3436
57.4535 91.6985
57.6630 97.7916
58.0830 60.3477
58.2425 53.7482
58.4020 57.7279
58.5085 69.0898
58.6150 83.9475
58.7191 78.5294
58.8231 47.3174
58.8280 45.6093
58.8468 39.2047
58.8656 33.5855
58.9031 27.8497
58.9432 27.5227
58.9832 26.8221
59.0955 21.8484
59.2078 17.9172
59.4324 13.7924
59.6570 12.0911
59.8816 11.5917
60.3308 13.3705
60.5554 16.2478
60.7800 21.7687
61.0140 32.6361
61.1310 40.9259
61.2480 51.8398
61.3280 61.8773
61.5260 92.7263
61.6215 80.1098
61.7170 54.2716
61.7240 52.6059
61.7385 49.3314
61.7530 46.2924
61.7819 40.8948
61.8398 32.4855
61.9556 22.2196
62.0713 16.7527
62.1871 13.7705
62.3029 12.4765
62.3608 12.5152
62.4187 13.2694
62.4765 15.3279
62.5344 20.3003
62.5634 25.1888
62.5923 33.4257
62.6213 48.1290
62.6502 75.8617
62.6799 128.985
62.7095 196.298
62.7243 208.090
62.7391 193.795
62.7687 132.422
62.7860 101.988
62.8034 79.7872
62.8380 52.7542
62.8727 38.4433
62.9074 30.1957
62.9420 25.0634
62.9767 21.6749
63.0460 17.6609
63.1154 15.5340
63.1847 14.3664
63.3234 13.5655
63.4620 14.0590
63.6007 15.7293
63.7393 18.9949
63.8780 24.9269
63.9783 32.0589
64.0720 42.2415
64.1657 55.4177
64.1720 56.1662
64.1947 58.2806
64.2173 59.1712
64.2626 56.6210
64.3532 45.2481
64.4013 44.9562
64.4493 54.3457
64.4650 60.6516
64.5054 87.0512
64.5457 122.956
64.5698 135.235
64.5939 131.376
64.6420 96.0476
64.6961 62.5452
64.7503 44.3009
64.8044 34.5470
64.8585 29.2182
64.9126 26.4756
64.9668 25.5798
65.0209 26.4570
65.0750 29.7602
65.1167 35.0897
65.2147 58.9281
65.2392 59.3755
65.2637 54.3925
65.3127 40.5713
65.3434 34.5732
65.3740 30.7482
65.4354 26.8881
65.4967 25.3009
65.5580 24.4214
65.7435 21.2021
65.9290 16.8483
66.0410 14.9766
66.2510 14.4175
66.4610 17.6877
66.7275 22.0493
66.9940 20.6786
67.2411 18.0339
67.4882 16.5166
67.7353 16.8637
67.8589 18.5943
67.9206 20.4917
67.9824 23.8514
68.1114 37.0850
68.1437 37.9746
68.1759 35.8357
68.2404 28.1433
68.3209 22.0169
68.4013 19.6068
68.4818 18.9009
68.5622 19.0476
68.7231 20.9499
68.8840 25.2813
69.0035 31.5505
69.1230 42.5486
69.2500 52.8471
69.3620 50.9679
69.5330 46.7951
69.7040 44.1769
69.9090 42.4952
70.0115 45.3044
70.1140 52.5834
70.1580 57.3402
70.2640 71.6028
70.3700 80.2235
70.4985 65.0344
70.6270 41.0335
70.7423 27.2299
70.8575 19.6251
70.9728 15.5206
71.0880 13.3420
71.3185 11.9985
71.5490 13.2176
71.6528 14.8363
71.7565 17.8562
71.9245 25.8171
72.0085 24.6670
72.0924 21.2997
72.1891 19.2031
72.2857 18.5903
72.4790 18.7323
72.7115 18.4675
72.9440 16.9725
73.0603 16.4082
73.1765 16.8982
73.2346 18.0057
73.2928 20.2194
73.3509 24.4601
73.4090 32.9232
73.4567 47.1020
73.4806 59.2816
73.5044 77.5918
73.5423 127.495
73.5802 198.739
73.5992 216.431
73.6181 204.999
73.6560 141.063
73.6889 99.2530
73.7218 76.6251
73.7546 65.5574
73.7875 61.1801
73.8533 64.0993
73.9190 77.9117
74.0375 125.545
74.1560 170.384
74.2745 151.387
74.3930 105.415
74.4752 80.8596
74.5574 63.6615
74.7218 43.9298
74.8040 38.7514
74.8862 36.0140
74.9684 36.4336
75.0095 38.8072
75.0506 44.0840
75.1413 70.4389
75.1867 71.8422
75.2320 62.1184
75.2895 54.5529
75.3470 54.6105
75.4044 60.9617
75.4619 74.6163
75.5416 112.238
75.6213 173.088
75.6612 192.597
75.7011 184.929
75.7808 120.565
75.8239 90.1797
75.8671 68.6283
75.9534 43.6590
76.0396 31.2884
76.1259 24.5854
76.2122 20.6937
76.2985 18.3721
76.4710 16.4723
76.7920 19.0107
76.9030 19.3147
77.1140 17.3509
77.3280 16.3123
77.5420 17.0604
77.7560 20.0635
77.8630 23.1231
77.9700 28.2263
78.1180 41.6492
78.2660 64.5565
78.3400 73.3676
78.4140 73.5115
78.5620 56.5380
78.7135 41.7899
78.8650 34.3063
79.0165 30.9318
79.1680 29.9156
79.4110 32.2476
79.5325 36.0068
79.6540 43.1718
79.7810 57.4638
79.9080 79.7133
79.9718 86.8371
80.0355 83.0647
80.1630 54.6953
80.2423 40.3106
80.3216 31.2046
80.4009 25.6218
80.4803 22.1307
80.6389 18.3899
80.7975 16.7392
81.1148 16.2966
81.2734 17.2486
81.4320 19.3376
81.6310 24.6708
81.8800 31.5711
81.9010 31.2955
81.9685 29.6420
82.0360 28.1185
82.1710 29.1289
82.3830 41.0331
82.6345 55.9148
82.6974 57.0767
82.7603 58.2054
82.8231 61.7432
82.8546 66.1765
82.8860 74.7804
82.9065 84.7101
82.9269 101.175
82.9474 129.838
82.9678 181.057
82.9773 215.182
82.9867 253.616
83.0056 298.869
83.0150 278.306
83.0245 234.035
83.0433 143.027
83.0574 98.9998
83.0715 71.9765
83.0855 55.2542
83.0996 44.5472
83.1278 32.4098
83.1559 26.1185
83.1841 22.3969
83.2122 19.9477
83.2685 16.8503
83.3248 14.8646
83.3811 13.4021
83.4937 11.2744
83.6063 9.74403
83.7189 8.58355
83.8315 7.69329
83.9441 6.96310
83.9807 6.45330
84.0173 6.21098
84.1147 6.10785
84.2122 6.00130
84.4070 6.76920
84.5270 8.62844
84.6470 11.5499
84.6870 12.4453
84.8270 14.2664
84.9670 15.5183
85.0986 18.2542
85.2302 23.9861
85.3630 32.5660
85.4294 35.3192
85.4958 34.4801
85.7090 19.4322
85.7613 17.0892
85.8860 14.5295
85.9980 13.8186
86.2880 8.49967
86.4970 6.32712
86.7060 5.95576
86.9150 6.69976
87.0195 7.62122
87.1240 9.35605
87.1718 10.7067
87.2195 12.7420
87.2673 15.9487
87.3150 20.9029
87.3631 26.2681
87.3871 26.7337
87.4111 24.3607
87.4592 15.6103
87.5072 9.62693
87.5474 7.21942
87.5877 6.05887
87.6682 5.31289
87.7486 5.35107
87.8291 5.67659
87.9901 6.77895
88.0705 7.51938
88.1510 7.83755
88.1863 6.93690
88.2215 5.28454
88.2568 4.82939
88.2921 5.54046
88.3773 7.66056
88.4625 9.56816
88.6329 14.4860
88.7181 18.5638
88.8033 25.1552
88.8885 36.8678
88.9737 58.4366
89.0485 84.4581
89.0859 92.3678
89.1233 90.8547
89.2728 46.0671
89.3404 34.7036
89.4080 28.3095
89.4224 27.3187
89.4529 25.4562
89.4834 23.7543
89.5443 20.5389
89.6052 19.3403
89.6661 20.2998
89.6902 20.7747
89.7170 21.8137
89.7439 22.9096
89.8103 24.2430
89.8766 25.6855
90.0094 28.8787
90.1422 32.4651
90.2750 37.0281
90.3775 42.8334
90.4287 47.6814
90.4800 55.2704
90.5312 68.0891
90.5824 91.6120
90.6337 138.889
90.6593 179.939
90.6849 239.724
90.7053 303.196
90.7258 375.736
90.7666 465.290
90.8074 380.358
90.8482 252.916
90.8848 175.891
90.9214 128.739
90.9580 99.3269
90.9946 80.0982
91.0678 57.4363
91.1410 44.9698
91.2404 35.1287
91.3398 29.1477
91.4391 25.1318
91.5385 22.2620
91.7373 18.5326
91.9360 16.4729
92.1348 15.6755
92.3335 16.3303
92.5323 19.5841
92.6316 23.1543
92.7310 28.9771
92.8398 37.7581
92.9486 41.7116
93.0481 33.5833
93.1475 23.6422
93.1662 22.3341
93.2249 19.6152
93.2837 18.8524
93.4011 21.4041
93.5280 23.1845
93.6548 20.6118
93.7367 19.3531
93.7776 19.4210
93.8186 20.3539
93.8595 22.8958
93.9004 29.0350
93.9209 35.0818
93.9414 45.3097
93.9618 63.5635
93.9823 96.8730
94.0019 145.822
94.0215 173.957
94.0411 137.047
94.0606 88.0281
94.0806 56.7814
94.1007 39.5978
94.1207 29.7798
94.1408 23.7943
94.1808 17.2639
94.2209 13.9708
94.2610 12.0611
94.3011 10.8367
94.3812 9.37351
94.4614 8.52958
94.5415 7.97706
94.7019 7.29587
94.8622 6.93147
94.9423 6.86891
95.0225 6.96352
95.1026 7.43527
95.1828 9.03070
95.2229 10.9921
95.2630 14.9501
95.3030 23.6394
95.3231 31.7401
95.3431 44.4318
95.3750 79.2967
95.4069 123.578
95.4229 132.755
95.4389 127.113
95.4708 95.4445
95.4995 70.6067
95.5282 54.3561
95.5569 43.9942
95.5856 37.1864
95.6430 29.2482
95.7003 25.0720
95.7577 22.6955
95.8151 21.3063
95.9299 20.1557
96.1594 21.3750
96.3889 26.4349
96.6797 33.0866
96.9704 25.3282
97.0760 24.6494
97.3109 27.2236
97.4284 29.9885
97.5458 33.7591
97.6633 39.0659
97.7220 42.7769
97.7807 47.8762
97.8394 55.7213
97.8688 61.6227
97.8982 69.9545
97.9275 82.4971
97.9569 102.870
97.9862 139.011
98.0009 167.851
98.0156 207.998
98.0282 253.506
98.0407 308.253
98.0658 395.690
98.0770 389.386
98.0965 311.055
98.1159 220.453
98.1363 154.858
98.1567 115.442
98.1771 91.7341
98.1974 76.9666
98.2382 60.8928
98.2790 53.1230
98.3198 48.9327
98.3605 46.4859
98.4421 44.0491
98.5236 43.3731
98.6051 44.5699
98.6459 46.5303
98.6867 50.4070
98.7274 58.0566
98.7682 73.1695
98.8059 96.4541
98.8435 113.709
98.8812 98.7259
98.9188 73.6373
98.9589 56.2455
98.9989 46.6389
99.0390 41.1411
99.0790 37.8120
99.1463 34.8049
99.2136 33.7083
99.3481 35.8178
99.5796 49.8196
99.8112 41.3628
99.8881 41.2181
99.9649 45.6832
100.172 75.4019
100.276 67.4703
100.379 47.7167
100.454 36.7093
100.528 29.0660
100.677 20.0323
100.826 15.1987
100.975 12.2688
101.272 8.90506
101.570 7.02401
102.110 5.32954
102.380 5.34594
102.515 5.81608
102.650 6.95142
102.742 8.47161
102.833 11.2565
102.925 16.7954
102.970 21.6555
103.016 28.9862
103.149 65.9536
103.182 68.1006
103.216 61.7830
103.282 39.5659
103.337 25.8306
103.392 17.5470
103.446 12.5978
103.501 9.54475
103.611 6.25497
103.720 4.71219
103.921 3.67199
104.121 3.78959
104.322 5.06506
104.422 6.52669
104.522 9.36374
104.602 12.7935
104.683 13.3479
104.742 15.3777
104.800 18.9143
104.848 22.7153
104.896 27.3811
104.920 30.1807
104.944 33.5894
104.956 35.7369
104.967 38.3964
104.979 41.9614
104.991 46.8058
105.004 52.6716
105.016 53.7917
105.028 46.2189
105.041 39.2641
105.050 36.6553
105.058 35.3153
105.076 34.3154
105.093 34.0741
105.110 33.9531
105.145 33.4372
105.180 32.3940
105.273 28.0092
105.365 23.3109
105.550 16.8403
105.690 14.7013
105.831 15.0209
105.901 16.7081
105.971 20.7585
106.006 24.6850
106.041 31.2453
106.076 43.0269
106.111 65.4452
106.146 107.320
106.181 158.744
106.198 167.713
106.216 158.902
106.250 119.126
106.289 85.5505
106.327 68.3758
106.366 60.5237
106.404 57.8134
106.485 61.3501
106.566 72.5779
106.727 102.431
106.888 105.225
107.049 86.8714
107.094 84.1808
107.139 84.7846
107.183 91.6120
107.206 99.2352
107.228 111.179
107.259 134.499
107.289 146.877
107.304 136.549
107.320 117.110
107.350 78.4935
107.387 52.8116
107.425 41.4530
107.462 35.8298
107.500 32.6488
107.574 29.3153
107.649 27.8690
107.724 27.6007
107.799 28.5060
107.873 30.9793
107.948 35.9178
107.963 37.3381
108.013 43.3598
108.062 51.3447
108.112 58.4673
108.161 58.5235
108.184 56.2031
108.272 48.2976
108.359 44.1739
108.420 41.0414
108.550 34.3484
108.680 29.7704
108.810 27.5039
108.940 27.1771
109.069 28.8407
109.199 33.3397
109.329 43.1991
109.394 51.9434
109.459 65.0302
109.553 94.0995
109.646 123.024
109.693 123.107
109.739 110.547
109.832 74.5682
109.925 51.0135
110.017 39.9162
110.110 36.4176
110.202 38.5612
110.361 45.7874
110.441 36.4165
110.520 28.1047
110.629 26.5837
110.738 32.8079
110.847 47.7619
110.956 78.6805
111.051 124.531
111.145 162.043
111.240 139.051
111.335 92.7376
111.421 63.5230
111.506 45.9249
111.592 35.2943
111.678 28.6578
111.849 21.6386
112.020 18.9927
112.255 19.9995
112.490 27.4056
112.725 38.9203
112.960 42.0423
113.270 41.1376
113.580 46.2077
114.110 58.9328
114.353 59.0348
114.475 62.5630
114.596 72.8151
114.640 78.9430
114.733 95.7826
114.826 108.270
114.884 103.633
114.941 87.8935
115.056 50.4833
115.117 36.8131
115.178 27.5419
115.300 17.1506
115.422 12.2810
115.544 9.87992
115.665 8.74602
115.787 8.50346
115.848 8.80028
115.909 9.66301
115.940 10.5278
115.970 11.9722
116.001 14.5265
116.031 19.1810
116.090 32.5192
116.119 28.1455
116.148 20.2012
116.183 14.3168
116.218 11.4764
116.252 10.0489
116.287 9.29426
116.357 8.66677
116.426 8.55107
116.565 8.91219
116.704 9.61979
116.978 10.5661
117.115 11.1797
117.252 12.9698
117.412 16.5227
117.571 22.1788
117.731 31.8597
117.810 39.6388
117.890 51.0663
117.965 67.5870
118.040 94.0913
118.127 146.608
118.171 182.755
118.214 217.119
118.257 230.911
118.301 210.200
118.387 122.931
118.458 73.8082
118.529 48.1314
118.599 34.9340
118.670 27.9108
118.769 22.8715
118.868 20.2536
119.065 17.2586
119.263 15.0456
119.361 14.1967
119.460 13.9146
119.516 14.4881
119.571 16.6276
119.599 19.0785
119.627 23.4967
119.654 31.7837
119.682 47.5825
119.713 79.5858
119.743 115.281
119.758 119.177
119.773 111.096
119.803 81.8344
119.831 59.8133
119.859 45.5248
119.887 36.1975
119.915 29.7252
119.942 24.8105
119.970 20.7653
119.998 17.3611
120.026 15.7799
120.039 16.9896
120.052 20.4337
120.064 25.7405
120.077 30.5532
120.103 33.4706
120.129 31.5394
120.164 28.4362
120.200 26.1578
120.270 23.3463
120.341 21.7599
120.412 20.8016
120.553 19.9031
120.694 19.8221
120.977 21.4178
121.118 23.1948
121.259 25.9690
121.424 31.3447
121.506 35.3764
121.588 40.0856
121.670 42.1904
121.753 32.4470
121.835 16.3103
121.876 11.9589
121.917 10.1883
121.968 10.1867
122.019 11.4479
122.120 15.7597
122.171 18.6750
122.222 22.4226
122.272 27.8243
122.298 31.7171
122.323 37.0452
122.343 42.9112
122.363 51.0387
122.383 62.0787
122.403 73.8324
122.420 74.7157
122.436 58.1120
122.452 34.7752
122.468 19.0167
122.476 14.4559
122.484 11.4747
122.495 9.12822
122.506 8.05402
122.528 7.82236
122.550 8.66138
122.572 9.84100
122.616 12.3606
122.660 14.7650
122.715 17.5914
122.770 20.3457
122.880 26.1833
122.951 30.2955
123.022 32.7035
123.092 26.4650
123.126 22.0740
123.161 20.3698
123.300 18.4539
123.340 18.4482
123.455 19.8591
123.570 21.7084
123.763 24.4948
123.859 25.9443
123.955 27.8360
124.051 30.9197
124.148 37.0599
124.196 42.7527
124.244 52.0775
124.292 68.3093
124.340 97.8291
124.390 150.809
124.440 202.512
124.470 198.367
124.505 161.506
124.540 120.954
124.569 95.0429
124.599 76.5025
124.657 54.0125
124.716 41.9915
124.774 34.9378
124.833 30.4386
124.892 27.3663
125.009 23.4814
125.126 21.1396
125.243 19.5885
125.478 17.7913
125.712 17.1959
125.946 17.9890
126.064 19.3059
126.181 21.8728
126.298 26.9339
126.357 31.0577
126.415 36.2931
126.493 41.3868
126.531 39.6675
126.570 34.0950
126.648 19.9460
126.687 14.9864
126.726 11.6661
126.780 8.92098
126.835 7.46037
126.943 6.26581
127.052 5.95423
127.160 5.92830
127.269 6.01798
127.377 6.23529
127.431 6.47806
127.486 6.99770
127.540 8.32621
127.567 9.74303
127.594 12.1647
127.632 17.6370
127.651 20.2684
127.670 21.4391
127.746 15.7596
127.794 12.9937
127.841 11.5420
127.909 10.6246
127.977 10.5204
128.045 11.2537
128.113 13.4030
128.192 18.6452
128.270 24.4207
128.384 25.0772
128.493 22.6464
128.602 20.6956
128.820 17.2392
129.095 12.2301
129.370 8.51964
129.678 6.63463
129.986 6.18963
130.294 6.73460
130.448 7.57222
130.525 8.27935
130.602 9.33187
130.643 10.1338
130.683 11.3361
130.731 13.0575
130.779 11.9947
130.804 11.4393
130.855 10.3894
130.906 9.16069
131.007 6.91615
131.051 6.18018
131.073 5.89460
131.095 5.79653
131.121 6.37659
131.147 7.50904
131.198 7.54446
131.244 7.11838
131.290 6.87282
131.381 6.68919
131.564 6.80885
131.747 7.19354
131.930 7.77885
132.160 9.10392
132.275 10.4434
132.390 12.9381
132.480 16.2672
132.594 21.2075
132.650 21.9570
132.707 20.9780
132.850 18.8939
132.934 19.9327
133.047 23.0417
133.159 28.1519
133.272 37.5709
133.328 46.1215
133.384 60.0873
133.450 87.8097
133.516 120.189
133.578 120.424
133.640 96.3001
133.649 92.8363
133.670 85.4636
133.691 79.1767
133.733 69.6402
133.817 58.9110
133.901 53.9627
133.985 51.3832
134.152 47.7520
134.320 42.6794
134.660 28.2887
134.830 22.3297
135.000 18.6622
135.134 17.8699
135.269 19.8848
135.403 27.4553
135.470 35.5677
135.537 49.2134
135.622 78.6978
135.707 113.419
135.750 118.499
135.792 109.917
135.877 75.3072
135.939 54.5870
136.000 40.6348
136.062 31.5677
136.123 25.6430
136.246 19.1954
136.369 16.8600
136.432 16.2100
136.494 15.4158
136.507 15.4149
136.547 15.6069
136.587 15.9476
136.667 16.7152
136.827 16.4497
136.987 13.1493
137.146 11.2036
137.351 9.99638
137.716 4.75924
137.920 3.22812
138.125 2.56856
138.329 2.39756
138.533 2.54599
138.942 3.66829
139.146 4.74695
139.350 6.34542
139.600 9.19438
139.850 11.9834
140.100 11.0710
140.350 9.22266
140.530 10.2572
140.710 13.5079
140.970 20.9464
141.230 24.6430
141.485 20.2048
141.613 18.3039
141.740 18.5268
141.908 24.4638
142.195 52.4529
142.267 54.0683
142.339 49.9655
142.483 35.1690
142.665 21.4024
142.756 17.4076
142.847 14.8842
142.938 13.8279
142.984 14.0554
143.029 15.1461
143.075 17.8377
143.120 24.0827
143.143 30.1107
143.166 40.0645
143.188 57.5186
143.211 88.9032
143.223 113.503
143.235 143.201
143.258 191.168
143.270 187.273
143.282 164.332
143.305 106.776
143.325 71.9717
143.346 50.9212
143.366 38.0123
143.386 29.7503
143.427 20.3382
143.468 15.4351
143.508 12.5676
143.549 10.7624
143.630 8.73753
143.723 7.69159
143.815 7.32730
144.000 7.76656
144.370 10.8636
144.735 11.8922
144.918 11.0979
145.100 10.1655
145.270 9.73375
145.355 9.92749
145.439 10.7120
145.524 12.7589
145.567 14.7600
145.609 18.0553
145.652 23.7836
145.694 34.4344
145.715 43.2476
145.736 56.0087
145.758 74.4842
145.779 99.7031
145.779 99.9676
145.780 100.630
145.780 101.295
145.781 102.497
145.783 105.055
145.787 110.109
145.794 120.619
145.809 152.077
145.821 204.403
145.834 246.366
145.839 253.806
145.852 252.320
145.864 228.640
145.890 162.145
145.914 111.933
145.939 79.5747
145.963 59.1746
145.988 45.9792
146.036 30.7374
146.085 22.7611
146.134 18.0651
146.183 15.0710
146.280 11.5777
146.378 9.68728
146.475 8.56422
146.670 7.48613
146.835 7.32774
147.000 7.74630
147.330 10.1243
147.555 11.8951
147.611 12.2293
147.668 12.5675
147.696 12.7812
147.724 13.0853
147.738 13.3059
147.752 13.6006
147.766 13.9874
147.773 14.1840
147.780 14.2971
147.791 13.8183
147.801 11.8121
147.812 9.95657
147.822 9.57293
147.832 9.74908
147.842 9.99683
147.852 10.2165
147.862 10.3894
147.882 10.6280
147.901 10.7677
147.941 10.8841
147.980 10.8834
148.073 10.6603
148.166 10.2525
148.258 9.69129
148.351 9.11852
148.413 9.38376
148.443 10.3267
148.474 12.3485
148.505 15.4830
148.536 18.6602
148.597 21.2393
148.648 20.8863
148.698 20.2541
148.799 19.6777
148.900 20.0783
149.002 21.3587
149.204 27.3354
149.305 33.1321
149.406 42.0490
149.541 58.8330
149.675 68.6027
149.943 39.5420
150.040 31.5766
150.221 23.7178
150.403 20.4707
150.584 19.2040
150.765 18.8787
151.128 19.6307
151.309 20.7566
151.490 23.2082
151.598 26.0921
151.706 31.0116
152.013 55.2578
152.167 51.6090
152.320 39.7981
152.417 33.9331
152.514 30.3234
152.562 29.6242
152.610 30.1316
152.659 32.9115
152.683 35.8988
152.707 40.5855
152.766 51.7336
152.781 47.1808
152.796 39.4513
152.825 25.0166
152.851 17.7954
152.878 14.0435
152.904 11.9357
152.930 10.6129
152.981 8.95914
153.032 7.79639
153.057 7.39696
153.082 7.33950
153.108 8.26080
153.120 9.58628
153.133 11.9852
153.148 16.8148
153.163 23.5805
153.177 29.6165
153.192 31.5691
153.222 26.9333
153.237 24.0795
153.252 21.7151
153.277 18.7948
153.302 16.7935
153.352 14.3102
153.403 12.8536
153.453 11.9078
153.553 10.8146
153.654 10.3705
153.754 10.4897
153.854 11.4348
153.905 12.4944
153.955 14.3715
153.980 15.8599
154.005 17.9686
154.030 21.0098
154.055 25.2530
154.084 30.6368
154.113 30.0326
154.171 14.3405
154.194 11.8418
154.218 10.9329
154.264 11.3160
154.311 13.0766
154.359 15.4730
154.453 19.2348
154.548 16.5770
154.642 11.2985
154.721 8.26943
154.800 6.47394
154.957 4.84268
155.115 4.41037
155.273 4.61946
155.430 5.45937
155.588 7.35396
155.667 9.07025
155.745 11.7818
155.824 16.2990
155.903 24.1542
156.058 47.8054
156.097 46.5034
156.135 39.9757
156.212 23.8892
156.263 16.5292
156.314 11.8647
156.365 8.99197
156.416 7.24518
156.518 5.65939
156.621 5.52256
156.723 6.37607
156.825 8.25032
156.927 11.5566
157.029 17.2255
157.090 22.3927
157.151 29.4401
157.272 48.3914
157.323 53.7601
157.373 52.3830
157.440 40.5201
157.478 35.2428
157.496 31.7239
157.514 26.7711
157.515 26.5274
157.517 25.9380
157.519 25.3846
157.524 24.2823
157.532 22.2136
157.549 18.6329
157.584 13.1973
157.618 9.45998
157.652 6.93054
157.686 5.25900
157.721 4.21005
157.789 3.27212
157.893 3.18113
157.997 3.39398
158.101 3.43837
158.205 3.28886
158.430 2.83381
158.547 3.07944
158.663 4.21328
158.780 5.24753
158.897 4.96963
159.015 4.26377
159.132 3.88929
159.214 4.25245
159.295 5.09234
159.377 5.33829
159.459 5.04749
159.533 4.81537
159.606 4.80815
159.728 5.15111
159.850 4.19030
159.932 3.74823
160.015 3.52733
160.179 3.36899
160.509 3.60660
160.838 4.65851
161.002 5.75859
161.167 7.54721
161.495 11.9095
161.659 12.1914
161.823 14.0232
161.940 18.3372
162.056 27.7778
162.158 44.1773
162.259 68.2684
162.310 74.5008
162.361 69.1836
162.462 41.9125
162.530 29.6844
162.597 24.4463
162.665 24.7158
162.732 29.7451
162.853 47.0028
162.913 53.6320
162.973 54.1387
163.094 42.3141
163.214 30.3197
163.335 23.4034
163.531 20.1725
163.726 22.3412
163.921 22.0098
164.116 17.7082
164.327 13.8064
164.538 11.7440
164.643 11.3248
164.748 11.4018
164.854 12.4716
164.906 13.9773
164.959 17.2253
165.014 24.7445
165.068 37.4130
165.095 42.2601
165.123 43.7218
165.177 40.6806
165.228 37.9765
165.280 37.6382
165.383 43.5838
165.485 60.0681
165.537 74.8169
165.588 96.9203
165.616 113.698
165.645 134.703
165.673 160.396
165.701 187.150
165.715 195.849
165.740 180.041
165.765 99.8613
165.778 56.1920
165.784 39.7202
165.790 27.9696
165.796 20.2888
165.803 16.2694
165.809 14.9866
165.815 15.7399
165.828 21.2121
165.841 28.9536
165.867 44.0437
165.891 54.0168
165.914 60.0887
165.961 63.6694
166.002 59.2838
166.019 54.4400
166.042 49.6648
166.075 45.6395
166.108 41.9873
166.174 35.2936
166.305 25.6760
166.437 19.9661
166.568 16.5503
166.832 13.3606
166.963 13.0338
167.029 13.2873
167.062 13.5739
167.095 13.8322
167.114 13.4220
167.134 11.1424
167.144 9.33415
167.154 8.06843
167.173 7.96219
167.187 8.61983
167.201 9.26207
167.228 10.2372
167.284 11.4854
167.394 13.5440
167.504 16.6078
167.614 22.4456
167.711 32.7681
167.808 49.6207
167.857 54.6524
167.906 50.2917
168.003 29.4351
168.045 24.1582
168.087 22.4210
168.129 25.3821
168.150 29.8584
168.171 38.0020
168.187 48.0551
168.203 63.0917
168.218 84.5155
168.234 109.681
168.250 127.921
168.266 125.869
168.297 83.7516
168.319 58.8301
168.341 42.9878
168.363 33.0834
168.385 26.7024
168.429 19.3477
168.473 15.5437
168.517 13.3861
168.561 12.1308
168.649 11.1496
168.736 11.6688
168.780 12.6111
168.824 14.3034
168.868 17.3339
168.912 23.0547
168.934 27.8828
168.956 35.0211
168.978 45.9516
169.000 62.5923
169.031 96.8874
169.061 121.785
169.092 101.176
169.122 67.4599
169.151 46.3982
169.180 34.3437
169.218 25.8261
169.257 21.5506
169.295 19.4625
169.334 18.6974
169.410 19.9959
169.487 25.3087
169.626 43.9166
169.695 40.9320
169.764 31.7313
169.793 28.7699
169.849 25.1572
169.906 23.7574
170.018 24.7918
170.145 24.8820
170.271 17.1751
170.391 11.2792
170.511 8.83750
170.631 8.13513
170.751 8.30646
170.961 10.0909
171.170 14.3433
171.204 15.3429
171.212 15.5902
171.234 16.2882
171.256 17.0136
171.300 18.5231
171.343 20.1175
171.387 21.9714
171.431 24.8503
171.475 30.3241
171.518 38.6976
171.562 44.9310
171.657 39.9848
171.720 32.7757
171.816 24.0891
171.912 18.3393
172.002 14.7690
172.091 12.3063
172.270 9.34908
172.440 7.94007
172.662 7.26071
172.883 7.42572
173.250 8.57195
173.412 8.85901
173.611 10.5294
173.942 15.3101
173.961 15.5164
174.011 15.9331
174.060 16.1720
174.186 16.2333
174.311 16.2117
174.403 16.5219
174.449 16.8884
174.472 17.1669
174.495 17.4899
174.511 17.5471
174.526 17.1656
174.557 16.6364
174.579 16.8610
174.601 17.1670
174.644 17.8087
174.732 19.2560
174.908 23.3824
175.083 29.8995
175.259 39.0403
175.484 48.2960
175.597 46.5866
175.709 40.2078
175.935 24.7960
176.047 19.4200
176.104 17.7286
176.132 17.3141
176.160 17.4371
176.181 18.1481
176.201 19.8610
176.222 23.5816
176.242 31.3096
176.262 44.2143
176.281 55.4383
176.300 49.2160
176.319 35.8563
176.336 27.4225
176.353 22.0467
176.370 18.5731
176.387 16.2280
176.420 13.2731
176.454 11.4872
176.487 10.2504
176.521 9.31843
176.588 7.93680
176.655 6.89932
176.722 6.06118
176.856 5.00221
176.909 5.07376
176.961 5.69109
177.066 8.01759
177.171 9.07368
177.275 8.98984
177.528 8.62069
177.781 9.08534
178.034 10.4461
178.287 12.8744
178.667 17.2167
178.752 17.2008
178.763 17.1319
178.787 16.9976
178.811 16.8258
178.859 16.2410
179.038 12.3146
179.216 8.24507
179.304 7.07912
179.392 7.09456
179.464 8.73263
179.536 11.6647
179.608 12.1193
179.680 9.64248
179.765 6.98147
179.849 5.35511
179.933 4.37457
180.018 3.76032
180.187 3.10929
180.356 2.87045
180.693 3.07783
181.031 4.12138
181.211 4.87489
181.390 4.81539
181.480 4.28817
181.569 3.76974
181.614 3.68684
181.659 3.89901
181.703 4.77005
181.726 5.73662
181.748 7.40912
181.764 9.36385
181.780 12.3140
181.834 29.1799
181.848 29.9069
181.861 27.3940
181.888 19.2474
181.909 14.2232
181.930 10.9045
181.952 8.71724
181.973 7.24956
182.015 5.47894
182.057 4.50549
182.100 3.91845
182.142 3.54179
182.226 3.12044
182.311 2.92848
182.395 2.85886
182.565 2.93790
182.734 3.26847
182.818 3.57344
182.903 4.05753
182.987 4.90881
183.030 5.61098
183.072 6.66678
183.114 8.37403
183.157 11.3718
183.199 17.1737
183.220 22.0854
183.241 29.1295
183.275 44.6543
183.308 53.9500
183.375 28.3262
183.400 20.7948
183.426 15.9345
183.451 12.7835
183.476 10.6844
183.527 8.22380
183.577 6.94606
183.628 6.23405
183.678 5.82868
183.780 5.49309
183.881 5.49187
183.982 5.68693
184.184 6.57323
184.297 7.47789
184.353 8.13445
184.409 8.98205
184.448 9.62327
184.494 9.99843
184.541 9.29527
184.633 8.30136
184.730 9.37483
184.826 11.0213
184.856 11.5966
184.931 13.1356
185.006 14.7556
185.043 15.5531
185.081 16.2999
185.099 16.6448
185.118 16.9664
185.137 17.2641
185.146 17.4040
185.155 17.5307
185.181 17.4956
185.190 17.3485
185.198 17.3052
185.207 17.3265
185.214 17.3509
185.221 17.3674
185.236 17.3655
185.250 17.3156
185.264 17.2218
185.302 16.7812
185.340 16.1283
185.417 14.5122
185.569 11.8576
185.700 11.1433
185.830 11.7208
186.223 15.6031
186.419 13.0782
186.615 10.2542
186.777 9.34684
186.938 9.46204
187.262 11.8471
187.585 17.4838
187.746 22.3330
187.908 29.2026
188.118 39.8305
188.327 41.8083
188.746 22.8663
188.993 21.6790
189.240 26.8821
189.427 33.7314
189.521 37.0966
189.567 38.1131
189.591 38.1722
189.614 37.6490
189.632 36.5640
189.650 34.4991
189.659 32.9963
189.668 31.3055
189.677 30.1306
189.686 31.7196
189.695 40.0754
189.704 53.1263
189.723 64.9151
189.732 65.0567
189.741 64.3387
189.759 62.7203
189.779 61.4686
189.800 60.7230
189.840 60.0095
189.916 59.4158
189.993 58.4790
190.145 54.5791
190.450 43.6912
190.745 36.4893
190.893 35.0507
191.040 35.6476
191.120 37.3434
191.199 40.7959
191.252 44.7048
191.304 50.7357
191.357 59.8409
191.409 72.0260
191.462 82.0877
191.514 78.9100
191.619 50.2982
191.668 42.4144
191.717 38.5000
191.849 36.8151
191.980 26.5880
192.039 24.3695
192.099 23.3706
192.218 22.8135
192.336 22.9587
192.455 23.3671
192.693 24.5194
192.930 25.9015
193.143 27.3082
193.246 27.9728
193.349 28.1382
193.451 25.9704
193.503 23.5136
193.554 21.1143
193.657 19.1988
193.759 19.3277
193.862 19.5363
193.964 19.4358
194.202 18.0347
194.440 15.3999
194.820 11.3956
195.000 11.5407
195.180 12.8696
195.457 14.5331
195.734 14.7816
195.910 14.9070
196.163 17.3036
196.591 26.0040
196.835 30.1996
196.956 33.6065
197.078 37.9407
197.196 39.4526
197.313 32.3612
197.431 23.2160
197.549 19.4717
197.672 20.3926
197.733 22.4667
197.795 25.9765
197.856 31.8011
197.917 41.9353
197.948 49.9152
197.979 61.1310
198.009 77.1037
198.040 99.3051
198.088 140.969
198.111 151.667
198.135 144.010
198.183 93.7827
198.230 53.8172
198.258 40.3042
198.286 31.6502
198.342 22.5975
198.398 19.1130
198.454 18.2997
198.579 20.8135
198.704 22.8766
198.953 12.3427
199.037 10.6481
199.121 11.0061
199.204 14.0110
199.288 21.5940
199.437 49.1889
199.474 50.9065
199.511 47.4035
199.585 34.1986
199.679 21.8157
199.773 15.6503
199.866 12.7771
199.913 12.0682
199.937 11.8717
199.949 11.8304
199.960 11.8540
199.983 12.0886
200.006 11.8394
200.024 11.6812
200.043 11.6330
200.079 11.6701
200.185 11.6893
200.290 10.1599
200.396 9.07067
200.448 9.87107
200.501 11.8250
200.574 16.8841
200.612 21.0445
200.650 26.8908
200.684 34.4342
200.718 45.4162
200.752 59.3405
200.786 66.2256
200.787 66.1593
200.789 65.9643
200.791 65.6952
200.795 64.9452
200.804 62.7007
200.821 56.3503
200.854 43.1835
200.888 34.1678
200.921 28.4489
200.960 23.9856
200.999 20.7431
201.044 17.8951
201.088 15.7418
201.155 14.6092
201.188 14.6702
201.221 13.8372
201.285 11.8417
201.349 10.4665
201.477 8.95288
201.604 8.47377
201.732 8.88708
201.860 10.4558
201.988 14.0261
202.115 21.8152
202.179 28.8021
202.243 39.2166
202.345 64.3303
202.446 85.0913
202.548 72.4665
202.650 47.8914
202.725 34.9111
202.799 26.2286
202.874 20.4516
202.948 16.5335
203.134 11.2333
203.319 9.17331
203.690 6.18705
203.841 4.88426
203.992 4.12474
204.138 4.33378
204.284 5.80666
204.340 6.49493
204.424 7.51991
204.508 9.50568
204.542 11.4337
204.576 15.0019
204.619 23.5835
204.661 37.1481
204.670 40.2045
204.689 46.3076
204.708 52.0645
204.727 58.4770
204.745 67.0248
204.769 80.9515
204.792 84.5129
204.811 66.2037
204.831 45.5082
204.838 40.0384
204.856 30.2762
204.874 24.6221
204.892 21.1868
204.910 18.9577
204.946 16.2934
204.982 14.7592
205.030 13.4864
205.078 12.6666
205.174 11.7448
205.270 11.4503
205.367 11.7498
205.463 12.9086
205.559 15.7442
205.607 18.4190
205.655 22.6471
205.703 29.4509
205.751 40.0847
205.820 60.4115
205.854 66.8772
205.888 66.1151
206.024 36.1579
206.066 30.4008
206.107 26.4300
206.128 24.9492
206.149 23.7732
206.159 23.3163
206.170 22.9852
206.180 22.8602
206.190 23.1106
206.201 24.0724
206.213 25.1795
206.224 24.7539
206.235 23.4958
206.244 22.5973
206.254 21.9427
206.263 21.4599
206.272 21.0948
206.291 20.5870
206.309 20.2721
206.347 19.9922
206.384 20.0484
206.459 21.0066
206.533 23.1870
206.601 26.6422
206.669 32.2748
206.737 41.4563
206.805 56.0938
206.919 85.6522
206.959 85.5831
206.998 76.4153
207.077 49.8852
207.145 34.3253
207.212 25.9359
207.280 21.7989
207.347 20.0014
207.454 19.5855
207.562 20.5979
207.776 24.5109
207.999 30.8243
208.221 40.4110
208.786 70.0509
209.069 59.2201
209.210 50.2637
209.351 44.7264
209.476 46.0751
209.570 50.9252
209.663 49.2101
209.849 24.3310
209.916 18.6762
209.982 14.9621
210.079 12.7568
210.175 14.4277
210.272 16.2405
210.368 15.6382
210.502 13.8571
210.636 12.9719
210.703 13.1915
210.770 14.2502
210.837 17.0457
210.871 19.7554
210.904 24.0604
211.004 49.5775
211.029 52.4616
211.054 49.7831
211.104 36.8708
211.165 25.2942
211.226 19.7325
211.287 17.2038
211.348 16.2343
211.469 17.0126
211.591 20.8072
211.705 26.4624
211.818 28.6105
212.046 14.4526
212.123 11.1487
212.199 9.02092
212.352 6.82095
212.505 6.03488
212.658 6.01638
212.810 6.62139
212.963 7.98058
213.116 10.4924
213.269 14.8511
213.458 23.3503
213.646 30.1078
213.835 26.8951
214.023 20.0487
214.291 13.8945
214.559 11.5454
214.758 11.7313
214.956 14.5493
215.155 19.6697
215.353 18.8806
215.540 16.6926
215.720 16.0415
215.900 16.3288
216.260 17.8887
216.615 18.9450
216.798 18.7008
216.980 17.5692
217.084 16.9619
217.187 17.5256
217.274 20.4348
217.360 27.9965
217.405 34.9996
217.449 45.3876
217.500 63.8752
217.526 77.2478
217.551 94.7384
217.577 117.507
217.602 144.891
217.628 167.285
217.653 158.655
217.680 109.942
217.706 64.1382
217.733 40.8047
217.759 32.1192
217.796 30.2243
217.826 31.6541
217.856 33.6410
217.903 36.3557
217.950 38.0330
218.044 38.7805
218.138 38.2128
218.232 39.1330
218.287 41.8582
218.342 47.9033
218.396 60.0686
218.451 83.0888
218.517 130.492
218.583 168.435
218.650 145.699
218.716 104.842
218.742 93.1041
218.755 88.6618
218.767 85.6793
218.794 83.6574
218.807 77.9123
218.820 70.3781
218.834 64.4562
218.847 60.1068
218.861 56.6348
218.874 53.7478
218.901 49.0074
218.928 45.2112
218.982 39.3813
219.035 35.1226
219.143 29.4396
219.250 26.0834
219.358 24.2974
219.465 24.0010
219.573 25.8935
219.626 28.3512
219.680 32.7464
219.719 37.9211
219.757 45.8916
219.796 58.1855
219.834 76.4044
219.850 85.6988
219.892 110.525
219.935 120.220
220.019 84.2080
220.070 62.9861
220.120 49.3889
220.202 37.1767
220.284 30.8361
220.365 27.0726
220.447 24.5393
220.654 20.2618
220.860 16.9321
221.059 13.9255
221.335 10.2878
221.610 7.81693
221.931 6.45787
222.251 6.59808
222.411 7.44485
222.572 9.32086
222.732 13.5095
222.812 17.4531
222.892 23.6121
222.996 35.1281
223.100 42.4770
223.204 38.7230
223.308 37.4676
223.366 42.0457
223.423 53.3828
223.481 77.7333
223.509 99.0390
223.538 130.227
223.561 164.201
223.584 205.804
223.629 277.888
223.652 276.070
223.675 244.077
223.720 156.145
223.770 91.8593
223.819 58.1330
223.868 39.8882
223.918 29.3439
223.967 22.8167
224.017 18.5859
224.116 13.7864
224.214 11.5541
224.313 10.7560
224.511 12.2631
224.807 18.3243
224.955 15.1700
225.103 10.3325
225.296 6.56346
225.489 4.87312
225.681 4.18353
225.874 4.06369
226.447 5.48310
226.734 5.29714
227.021 4.55986
227.332 4.42748
227.571 4.69409
227.810 3.90069
228.183 3.87656
228.556 4.80214
228.928 6.94185
229.115 8.89264
229.301 11.8381
229.473 15.3060
229.644 16.7879
229.816 12.2143
229.901 10.2302
229.987 11.1694
230.070 16.2774
230.173 28.5062
230.275 37.4738
230.377 32.1857
230.479 23.0504
230.541 18.9775
230.669 14.3368
230.797 13.0260
231.052 14.0170
231.288 12.6601
231.347 11.8878
231.406 11.2549
231.435 11.1674
231.465 11.4840
231.494 12.6905
231.524 15.8271
231.563 25.0531
231.585 29.9370
231.616 28.9855
231.646 23.6363
231.669 20.1890
231.692 17.5870
231.737 14.1730
231.783 12.0915
231.828 10.6831
231.919 8.83739
232.009 7.63413
232.191 6.10148
232.372 5.17555
232.554 4.62350
232.735 4.42484
232.917 4.84219
233.007 5.59762
233.098 7.24478
233.154 9.12403
233.210 12.1683
233.265 17.0089
233.321 24.1273
233.433 41.8608
233.544 54.0118
233.632 64.5804
233.720 84.0074
233.796 104.764
233.871 106.987
233.939 86.8639
233.973 75.6731
233.990 70.2289
234.007 62.8008
234.022 49.4514
234.029 39.9487
234.037 31.5359
234.044 26.7516
234.051 25.3614
234.066 26.2946
234.083 27.4107
234.099 27.5511
234.132 26.3677
234.199 23.1785
234.265 21.0727
234.298 20.3832
234.331 19.3892
234.362 16.7272
234.393 11.3035
234.408 8.84158
234.424 7.41562
234.455 6.93053
234.484 7.48454
234.513 8.10447
234.572 9.04828
234.688 10.3602
234.805 11.8464
234.922 14.1738
235.045 18.5726
235.107 22.1668
235.168 27.1620
235.246 34.6890
235.323 36.6957
235.478 21.2019
235.545 18.1251
235.611 16.9741
235.783 17.2180
235.956 18.1477
236.042 18.5339
236.128 19.0298
236.214 20.0007
236.257 20.9228
236.300 22.4665
236.339 24.9142
236.378 29.5532
236.397 33.5597
236.416 39.7403
236.436 49.7552
236.455 66.5526
236.466 80.3510
236.477 97.2893
236.499 126.088
236.510 124.622
236.521 110.662
236.542 74.4488
236.560 54.3459
236.577 42.1624
236.594 34.7648
236.611 30.1400
236.646 25.1731
236.680 22.9418
236.714 21.9704
236.749 21.6871
236.818 22.3077
236.887 24.0477
236.955 26.8488
237.093 36.5736
237.338 60.2397
237.461 49.0968
237.584 31.5380
237.675 22.8445
237.766 17.4364
237.947 11.9556
238.129 9.61370
238.310 8.45099
238.523 7.60611
238.735 6.82458
238.948 5.99204
239.054 5.75360
239.107 5.83166
239.160 6.24328
239.196 6.89935
239.231 8.17028
239.267 10.6521
239.302 15.5801
239.344 26.8148
239.385 38.5368
239.410 37.5412
239.468 23.5912
239.491 19.3866
239.515 16.3281
239.562 12.4653
239.608 10.2810
239.655 8.94042
239.717 7.76116
239.779 7.29368
239.895 6.78893
240.010 6.69332
240.120 6.90749
240.230 7.57581
240.313 8.81652
240.354 10.0134
240.395 12.0120
240.431 15.0059
240.468 20.1344
240.504 29.0939
240.540 43.3845
240.576 58.9095
240.613 62.0680
240.685 40.2385
240.721 31.7450
240.758 26.1825
240.794 22.5413
240.830 20.1419
240.903 17.5241
240.975 16.6847
241.060 17.3772
241.116 18.5615
241.172 18.4684
241.227 13.9953
241.283 9.53775
241.339 8.09477
241.420 8.16906
241.502 8.89622
241.665 10.8903
241.990 16.7681
242.405 27.5192
242.820 32.8540
242.966 32.7240
243.039 33.3078
243.112 35.5662
243.165 39.0716
243.218 42.0243
243.245 40.5365
243.271 36.4028
243.324 26.8925
243.364 22.3854
243.403 19.6846
243.482 16.7652
243.561 15.1108
243.640 13.9448
243.805 12.3362
243.970 11.6426
244.134 12.0933
244.217 12.9527
244.299 14.4183
244.301 14.4630
244.308 14.6327
244.316 14.8067
244.330 15.1762
244.360 16.0158
244.418 18.4664
244.460 21.7155
244.501 25.6118
244.526 26.9750
244.538 27.2969
244.565 27.4148
244.591 26.9365
244.645 24.9530
244.698 22.5789
244.751 20.6532
244.780 20.0057
244.794 19.8344
244.809 19.6596
244.830 17.5185
244.831 17.3860
244.834 16.8592
244.836 16.3848
244.842 15.6202
244.853 14.8967
244.862 14.6921
244.872 14.5867
244.891 14.3750
244.910 14.0956
244.929 13.7696
245.006 12.3048
245.159 9.65981
245.377 7.22530
245.595 5.91822
246.030 5.03722
246.466 5.62970
246.901 7.93135
247.081 9.18947
247.260 8.89877
247.350 7.02971
247.440 4.43466
247.484 3.81449
247.529 4.43203
247.574 6.72971
247.619 10.8184
247.684 19.5020
247.818 41.6611
247.952 55.3579
248.086 53.3629
248.219 44.5809
248.451 32.3904
248.682 26.3567
248.834 21.3370
248.986 13.3059
249.062 10.0050
249.138 7.85873
249.214 6.69039
249.290 6.20608
249.437 6.50281
249.585 8.10516
249.732 11.6358
249.805 14.7839
249.879 19.6840
249.978 31.2691
250.027 40.5086
250.076 52.3808
250.165 73.5045
250.209 76.2360
250.253 69.7348
250.273 63.9556
250.331 42.7717
250.360 34.0157
250.389 28.7610
250.434 27.5088
250.478 32.5369
250.525 42.9816
250.596 66.5304
250.666 89.8768
250.713 94.8138
250.761 88.6020
250.855 63.5680
250.926 48.0331
250.998 37.5520
251.141 26.2697
251.283 21.6429
251.426 20.5561
251.569 22.4145
251.712 28.5666
251.783 34.6454
251.854 44.5279
251.926 61.0646
251.997 88.8263
252.078 136.188
252.159 166.375
252.240 135.847
252.321 91.6582
252.402 63.5628
252.483 48.0989
252.570 39.1488
252.657 34.3913
252.831 30.7764
253.178 29.4302
253.526 23.7779
253.874 19.2518
254.069 21.3291
254.167 24.9495
254.264 31.6484
254.357 42.1405
254.450 53.4017
254.497 53.1552
254.544 44.3303
254.637 16.3362
254.662 11.4084
254.686 8.04997
254.711 6.12555
254.735 5.43699
254.769 6.17395
254.804 8.45364
254.873 15.8310
254.941 23.9536
255.010 29.5809
255.147 30.4399
255.284 25.0270
255.442 19.0725
255.599 14.9326
255.915 10.5164
256.230 9.36712
256.387 10.1129
256.545 12.3830
256.864 20.5847
257.024 18.2946
257.184 13.7290
257.362 10.3928
257.539 8.77513
257.717 8.32617
257.894 8.95779
258.123 9.81997
258.238 8.00946
258.352 6.46096
258.512 6.25672
258.672 7.81006
258.921 12.0989
258.984 11.3931
259.046 9.53657
259.171 5.65529
259.248 4.18614
259.325 3.31036
259.480 2.54388
259.634 2.42696
259.788 2.68432
260.097 4.10366
260.132 4.29370
260.218 4.73507
260.304 5.18033
260.476 6.22605
260.502 6.36755
260.603 6.69764
260.705 6.59312
260.907 5.69969
261.174 4.88846
261.440 5.07794
261.573 5.69401
261.707 7.00966
261.773 8.19051
261.840 10.0602
261.906 13.2048
261.973 18.5055
262.025 23.2335
262.076 22.6099
262.128 15.1596
262.179 9.46713
262.218 7.62379
262.257 7.18807
262.296 7.70970
262.335 9.02757
262.380 11.5710
262.425 15.4013
262.514 26.0722
262.559 29.4100
262.604 28.5278
262.693 20.3499
262.770 15.0751
262.846 12.6038
262.954 12.6954
263.062 17.0265
263.170 22.8889
263.277 22.0542
263.286 21.7681
263.315 20.8116
263.344 19.8814
263.402 18.2680
263.518 16.0176
263.749 12.6284
263.980 9.56543
264.211 8.04958
264.415 8.41745
264.619 11.1918
264.894 19.2772
265.031 17.8771
265.168 13.3477
265.283 10.6650
265.398 9.23583
265.629 8.64155
265.859 9.94367
266.089 13.2395
266.275 17.9583
266.460 22.6520
266.553 21.8885
266.646 17.9833
266.832 9.31994
266.900 7.53448
267.048 5.74251
267.195 5.55211
267.490 7.04696
267.785 9.49451
267.933 11.0159
268.006 11.9567
268.080 13.1611
268.168 15.3648
268.211 17.1894
268.255 20.1578
268.287 23.8649
268.319 30.1824
268.351 39.9606
268.383 47.2842
268.395 47.2949
268.430 42.6954
268.465 39.3106
268.500 38.1960
268.535 37.4676
268.554 36.7042
268.597 33.4923
268.640 28.8678
268.726 20.3128
268.794 15.9842
268.862 13.2834
268.998 10.3629
269.134 8.87165
269.270 7.98603
269.385 7.54964
269.500 7.48095
269.557 7.71866
269.614 8.36779
269.672 9.95208
269.701 11.4780
269.729 13.8812
269.808 23.5424
269.848 20.9022
269.887 15.1634
269.920 11.7622
269.952 9.60375
269.985 8.22631
270.017 7.30916
270.082 6.19861
270.147 5.55820
270.277 4.83011
270.407 4.39900
270.667 3.86743
270.927 3.55543
271.187 3.41253
271.447 3.51477
271.577 3.76185
271.707 4.34422
271.772 4.91280
271.837 5.87967
271.902 7.65774
271.967 11.2257
272.023 17.2069
272.098 27.0784
272.107 27.0848
272.128 25.2946
272.149 21.7764
272.191 14.6932
272.230 10.4607
272.276 7.66008
272.323 6.10055
272.369 5.17276
272.415 4.59616
272.508 3.98472
272.601 3.73872
272.786 3.75429
272.972 4.22704
273.157 5.29502
273.342 7.62296
273.435 9.84264
273.528 13.5915
273.620 20.4447
273.713 33.9388
273.793 55.2652
273.873 79.6730
273.913 82.7687
273.954 75.9874
274.034 50.6813
274.089 36.6176
274.145 27.1065
274.200 20.8477
274.255 16.6867
274.366 11.9393
274.477 9.76366
274.587 9.12857
274.698 10.0246
274.808 13.6367
274.864 17.5215
274.919 23.9535
275.003 40.4357
275.086 57.5608
275.155 57.4719
275.173 55.5089
275.190 53.1815
275.208 50.6476
275.216 49.3654
275.225 48.1396
275.235 46.9008
275.245 45.9645
275.252 45.2646
275.264 43.7557
275.273 42.6596
275.281 41.6102
275.289 40.6125
275.298 39.6682
275.314 37.9213
275.331 36.3700
275.364 33.7430
275.398 31.6640
275.464 28.7715
275.531 27.1111
275.664 26.1707
275.797 27.3489
276.067 33.8100
276.337 39.7163
276.441 39.7045
276.545 38.7057
276.623 38.1835
276.661 38.6133
276.700 40.8650
276.731 46.6627
276.762 61.5315
276.785 79.1031
276.807 91.2290
276.842 81.2838
276.876 62.5359
276.914 47.4089
276.947 38.2266
276.979 31.2180
277.060 19.4686
277.140 12.4056
277.220 7.90367
277.301 4.92233
277.381 3.04754
277.421 2.56784
277.462 2.56131
277.502 3.37685
277.522 4.31384
277.542 5.82182
277.562 8.17885
277.582 11.8135
277.602 17.3639
277.622 25.6846
277.663 52.9563
277.683 68.6157
277.703 78.7479
277.743 72.5725
277.783 53.4087
277.829 37.4288
277.874 27.8114
277.919 21.9196
277.965 18.1347
278.055 13.9206
278.146 12.1772
278.236 12.1744
278.327 14.2519
278.418 20.1676
278.463 25.9438
278.508 35.0604
278.577 58.5762
278.645 88.0010
278.679 93.4626
278.714 87.9169
278.782 61.8207
278.845 42.0937
278.908 29.8887
278.970 22.4328
279.033 17.7000
279.159 12.3441
279.284 9.62143
279.410 8.18325
279.535 7.59928
279.661 7.91818
279.786 9.75302
279.990 16.8018
280.092 16.1453
280.194 12.8611
280.343 9.93586
280.491 9.76686
280.565 10.8479
280.640 13.2837
280.714 18.3784
280.788 29.1982
280.855 48.0962
280.921 71.7374
280.954 76.6229
280.988 73.3662
281.054 55.3822
281.115 41.4698
281.175 32.9613
281.236 28.2042
281.296 25.8678
281.417 26.2184
281.478 28.7391
281.538 32.8926
281.618 38.9235
281.698 36.4551
281.778 23.8569
281.857 13.9184
281.934 9.05351
282.011 6.75754
282.089 5.67706
282.166 5.19740
282.320 5.09657
282.475 5.61676
282.629 6.64546
282.783 8.35033
282.938 11.2208
283.015 13.4304
283.092 16.5396
283.148 19.7041
283.204 24.1284
283.260 30.7145
283.316 41.4118
283.360 55.4596
283.394 71.8389
283.427 92.6260
283.461 101.439
283.477 90.6623
283.494 70.7621
283.528 32.0183
283.544 20.2784
283.561 13.0505
283.578 8.82046
283.595 6.54613
283.611 5.47211
283.628 5.15790
283.658 5.64164
283.687 6.79688
283.734 9.11996
283.780 11.5611
283.873 16.0581
284.059 23.0488
284.278 31.5718
284.388 38.2891
284.497 47.3210
284.632 55.0393
284.700 51.6072
284.767 42.7704
284.902 23.4172
284.969 16.9863
285.036 12.7203
285.105 9.99000
285.174 8.43838
285.311 7.80681
285.393 8.74014
285.475 10.6154
285.639 15.9683
285.721 17.5295
285.803 17.2326
285.966 13.4996
286.105 10.5248
286.244 8.65435
286.521 7.42321
286.660 7.85830
286.799 9.21566
286.937 12.1687
287.076 18.3522
287.199 28.8533
287.321 42.1864
287.382 44.5565
287.444 41.3691
287.566 27.6420
287.658 19.4689
287.749 14.2721
287.841 11.0765
287.932 9.09773
288.115 7.13812
288.298 6.66130
288.481 7.25543
288.664 9.20127
288.847 13.7553
288.939 17.9845
289.030 24.5255
289.156 38.6024
289.282 52.1629
289.345 52.0533
289.408 46.2935
289.534 29.9874
289.673 17.7916
289.811 11.4054
289.950 7.99567
290.088 6.06048
290.365 4.22010
290.642 3.65617
291.021 4.10095
291.400 5.70909
291.780 7.05768
292.159 7.44628
292.499 8.82583
292.669 10.6487
292.839 13.9581
293.208 25.5930
293.393 23.3496
293.578 17.0287
293.780 12.8644
293.983 11.7653
294.185 13.0721
294.387 17.2604
294.497 21.4386
294.608 27.7305
294.718 37.0559
294.828 50.0948
295.049 74.8922
295.159 66.9130
295.214 55.8690
295.242 49.4152
295.269 43.7299
295.278 42.6957
295.292 43.1310
295.306 47.9307
295.315 53.0383
295.332 59.5638
295.348 57.5133
295.352 56.1916
295.367 51.3503
295.381 47.0612
295.410 41.3387
295.468 37.5276
295.587 25.4675
295.637 20.4068
295.687 17.2841
295.782 14.9228
295.878 14.7504
296.068 15.7238
296.292 16.6727
296.515 17.6241
296.739 19.1298
296.963 21.6978
297.186 26.1279
297.410 34.2461
297.522 41.0730
297.633 51.5383
297.745 68.8017
297.857 99.3915
297.904 118.617
297.985 160.867
298.065 199.260
298.117 204.391
298.169 189.992
298.273 142.066
298.349 116.850
298.425 102.891
298.463 99.5282
298.501 98.8881
298.538 102.712
298.557 107.917
298.576 117.406
298.599 139.445
298.611 156.612
298.622 176.782
298.628 186.957
298.641 198.897
298.654 190.269
298.680 145.521
298.701 119.665
298.721 104.579
298.742 95.5100
298.763 89.6422
298.804 82.3310
298.845 77.5634
298.928 70.3326
299.011 63.8475
299.176 51.3901
299.341 40.4130
299.539 30.2018
299.639 26.4645
299.688 25.1273
299.738 24.5858
299.784 25.9687
299.830 31.9435
299.854 36.0776
299.877 37.4397
299.923 31.3129
299.947 27.8930
299.972 25.2915
300.020 21.8549
300.068 19.6999
300.117 18.1893
300.213 16.1214
300.310 14.7423
300.581 12.8486
300.851 12.7189
301.393 12.2570
301.516 13.0204
301.638 15.0059
301.761 19.5654
301.822 23.9133
301.883 31.0939
301.921 37.8648
301.958 47.3605
302.033 74.3498
302.071 82.8217
302.108 76.5800
302.183 43.0798
302.226 30.4633
302.262 24.3450
302.299 21.0132
302.371 19.3736
302.444 21.8049
302.516 26.4457
302.588 30.5014
302.661 30.4360
302.805 20.2561
302.864 16.1724
302.970 10.9943
303.076 7.94621
303.182 6.17060
303.289 5.15450
303.501 4.41595
303.713 4.61451
304.327 5.98874
304.561 6.27583
304.871 6.89756
305.143 7.18537
305.414 5.79039
305.763 5.19326
306.111 5.35417
306.200 5.45440
306.288 5.41782
306.359 4.84712
306.395 4.51666
306.430 4.43608
306.464 4.52612
306.571 4.94628
306.678 5.26135
306.892 5.77186
306.992 6.01076
307.253 6.72819
307.513 7.72768
307.640 8.29124
307.695 8.44733
307.738 8.46627
307.837 8.03819
307.937 7.30745
308.036 6.82875
308.135 6.59117
308.319 6.36908
308.484 6.25446
308.860 6.05541
308.943 6.02059
309.172 5.96725
309.402 6.01109
309.860 6.55121
310.089 7.15604
310.319 8.12256
310.548 9.66441
310.777 12.0840
310.890 13.5898
310.946 14.3520
311.002 15.0619
311.057 15.7178
311.085 16.1146
311.098 16.3882
311.112 16.7661
311.122 17.1303
311.131 17.6077
311.140 18.1746
311.149 18.7041
311.158 18.6754
311.163 17.9972
311.169 16.7808
311.180 14.2572
311.192 12.9231
311.203 12.3993
311.212 12.2022
311.221 12.0733
311.238 11.8624
311.256 11.6449
311.274 11.4096
311.309 10.9332
311.345 10.5513
311.415 10.5348
311.486 12.2175
311.521 13.8708
311.633 20.2841
311.689 20.1960
311.746 17.6258
311.858 12.5509
311.970 10.4567
312.031 10.1901
312.140 10.6377
312.535 14.8553
312.733 14.3524
312.930 12.2743
312.955 11.9615
313.016 11.1673
313.078 10.3499
313.200 8.83049
313.314 8.39630
313.404 9.93221
313.494 13.9081
313.673 26.8291
313.761 33.7134
313.953 46.7191
314.144 49.8832
314.270 43.7119
314.399 34.9806
314.463 31.5961
314.527 29.6968
314.573 29.3873
314.619 28.9986
314.652 25.8071
314.675 20.2893
314.699 14.0208
314.719 10.6487
314.738 9.55509
314.778 10.8039
314.810 12.6997
314.841 14.6224
314.903 17.9997
315.028 21.6546
315.217 19.5101
315.405 15.2856
315.429 14.8632
315.491 13.9432
315.552 13.2567
315.675 12.5633
315.798 12.8403
315.860 13.4872
315.921 14.7023
315.986 16.8323
316.019 17.7474
316.051 16.7729
316.097 11.1273
316.119 9.84541
316.142 10.5151
316.181 15.3310
316.206 21.4613
316.232 31.6560
316.234 32.8611
316.240 36.1235
316.246 39.6686
316.257 47.2302
316.274 57.2418
316.290 61.3539
316.318 49.9870
316.346 33.5784
316.378 21.9048
316.410 15.7320
316.442 12.3144
316.473 10.2712
316.537 8.06103
316.601 6.92903
316.664 6.24749
316.728 5.79389
316.855 5.26210
317.012 5.07213
317.158 5.31573
317.304 5.97514
317.449 7.10568
317.522 7.97356
317.595 9.29845
317.676 11.9533
317.716 14.1766
317.756 17.2363
317.812 21.8255
317.839 22.6188
317.867 21.2710
317.978 9.23047
318.028 6.53351
318.078 5.05556
318.128 4.21358
318.178 3.71257
318.211 3.49473
318.309 3.15436
318.407 3.08620
318.603 3.37860
318.800 3.90581
318.898 4.34989
318.996 5.23936
319.056 6.27144
319.117 8.05717
319.177 11.2955
319.237 16.9766
319.298 23.5986
319.329 24.3211
319.359 22.3024
319.420 15.4952
319.480 10.9009
319.546 8.66560
319.612 8.08738
319.677 8.59720
319.743 10.1230
319.854 15.7752
319.965 25.7862
320.020 29.5966
320.076 29.4018
320.186 20.5424
320.275 14.0862
320.363 10.2103
320.451 8.37282
320.496 8.38930
320.540 9.77647
320.562 11.5566
320.584 14.7447
320.606 20.1965
320.628 28.4297
320.650 37.4673
320.672 41.4284
320.716 32.0471
320.756 22.9165
320.796 17.7177
320.837 14.7760
320.877 13.0379
320.957 11.3534
321.037 10.9688
321.117 11.5617
321.197 13.4592
321.277 18.0129
321.317 22.3879
321.357 29.4370
321.410 45.0604
321.463 62.9257
321.489 64.9670
321.516 60.0862
321.568 42.5103
321.608 31.8779
321.649 24.9917
321.689 20.6065
321.729 17.7594
321.813 14.3654
321.897 12.4947
322.019 10.4206
322.141 8.40227
322.262 7.51758
322.384 7.93789
322.392 7.98123
322.421 8.13905
322.450 8.29319
322.508 8.57921
322.696 9.44438
322.883 10.7766
322.948 11.3697
323.054 12.4010
323.108 12.8981
323.162 13.0274
323.210 11.8544
323.257 8.14271
323.287 5.17576
323.316 2.97209
323.331 2.31166
323.346 1.91898
323.375 1.69624
323.407 1.92052
323.489 3.00636
323.571 3.98155
323.735 5.47098
323.898 6.83784
324.062 8.50748
324.110 9.12054
324.225 10.9675
324.339 13.6301
324.386 15.0229
324.548 20.4898
324.710 24.9480
325.271 30.7776
325.447 34.4702
325.580 39.3227
325.801 51.8004
326.021 62.2825
326.102 60.5367
326.143 58.7208
326.183 58.9279
326.224 68.3178
326.264 96.7077
326.305 126.412
326.345 128.861
326.414 107.162
326.478 89.0422
326.542 75.8585
326.606 66.4015
326.670 60.0173
326.747 56.9388
326.786 58.4682
326.824 63.6296
326.863 71.9443
326.901 71.9495
326.977 45.3312
327.014 38.5512
327.050 34.5897
327.091 31.7680
327.133 29.8824
327.216 27.5068
327.381 25.3764
327.617 25.9511
327.734 27.8419
327.852 30.8169
327.985 33.6063
328.118 29.5175
328.251 19.7057
328.383 13.2870
328.520 10.6650
328.658 10.0090
328.795 10.2797
328.933 11.1661
329.070 12.7473
329.207 15.6020
329.276 18.0737
329.345 22.1667
329.379 25.3977
329.413 30.0542
329.448 37.0816
329.482 47.9257
329.493 52.4519
329.536 73.2145
329.557 80.8748
329.578 81.1987
329.637 53.1835
329.663 42.3311
329.706 31.6623
329.749 26.6504
329.791 24.2953
329.830 23.1343
329.892 22.1123
329.955 21.3452
330.080 19.1758
330.329 12.5775
330.483 10.3010
330.569 10.4022
330.655 11.5625
330.827 15.3688
330.910 16.5333
331.020 16.8406
331.171 16.2412
331.301 15.9738
331.430 15.9522
331.529 14.9048
331.628 12.5522
331.825 9.57575
332.023 9.20726
332.220 9.67308
332.320 10.0690
332.565 11.4356
332.810 13.7882
332.919 15.6810
333.028 19.0068
333.080 21.6607
333.166 29.6376
333.252 46.5456
333.338 63.1791
333.424 67.6608
333.568 47.4314
333.671 39.0175
333.723 39.1955
333.749 40.5533
333.775 42.9474
333.809 49.2745
333.844 56.3682
333.860 59.6168
333.886 64.1934
333.933 63.9281
333.979 51.5341
334.026 37.7279
334.072 28.1215
334.131 21.0290
334.190 17.1595
334.204 16.5237
334.233 15.4351
334.263 14.6096
334.321 13.5197
334.420 12.8520
334.520 13.3622
334.619 15.2337
334.718 19.0199
334.817 24.2889
334.917 25.4306
335.115 12.9411
335.238 8.66672
335.360 6.60620
335.400 6.18165
335.525 5.28648
335.650 4.78229
335.899 4.35735
336.149 4.40125
336.398 4.90606
336.561 5.63708
336.724 7.01686
336.886 9.90911
336.968 12.5952
337.049 16.7618
337.146 23.4884
337.243 26.1223
337.438 13.8908
337.543 10.6073
337.647 9.45241
337.856 10.2096
338.065 13.8211
338.274 21.2703
338.681 43.5758
338.884 36.7352
339.087 24.1317
339.232 17.9246
339.304 15.8015
339.376 14.3278
339.448 13.6808
339.520 14.5265
339.556 16.1022
339.593 19.2682
339.629 25.5305
339.665 38.2754
339.685 50.7493
339.705 69.3030
339.725 95.4178
339.745 126.430
339.765 150.772
339.786 154.022
339.826 114.174
339.857 82.8220
339.889 62.2490
339.920 49.1788
339.952 40.6064
340.015 30.5238
340.078 25.0512
340.141 21.7122
340.204 19.5139
340.330 16.8685
340.491 15.1295
340.649 14.2821
340.807 13.9281
340.964 13.9310
341.122 14.1320
341.280 13.7070
341.438 10.3024
341.595 6.14055
341.674 5.34689
341.753 5.15527
341.975 5.78896
342.197 7.16291
342.307 8.32493
342.418 10.1838
342.529 13.4078
342.640 19.3440
342.719 26.2628
342.849 38.7574
342.944 37.5747
343.038 30.6703
343.057 29.4317
343.097 27.2019
343.117 26.1274
343.137 25.1335
343.163 24.1510
343.189 23.2957
343.273 21.1922
343.357 20.0392
343.623 21.0408
343.792 22.4840
343.877 23.0786
343.961 23.6049
343.994 23.3981
344.026 22.1108
344.057 19.0633
344.115 14.6541
344.145 14.1070
344.175 13.7813
344.235 12.8065
344.326 10.2687
344.390 8.15852
344.421 7.29637
344.453 7.10237
344.473 7.92994
344.494 10.5127
344.514 16.5528
344.535 27.5662
344.555 40.0603
344.575 44.6518
344.616 34.9562
344.635 30.1226
344.653 26.2730
344.690 20.9111
344.734 16.9855
344.778 14.4566
344.859 11.5932
344.940 9.92277
345.047 8.75205
345.155 8.60583
345.262 10.0232
345.315 11.8530
345.369 15.0741
345.413 19.3187
345.457 25.5359
345.544 42.0346
345.588 46.7588
345.632 45.5909
345.719 34.2300
345.779 27.0503
345.839 21.8634
345.898 18.2250
345.958 15.6320
346.078 12.2973
346.197 10.3044
346.436 8.09078
346.676 6.92547
346.915 6.25521
347.154 5.93924
347.273 5.96195
347.393 6.25318
347.513 7.26427
347.572 8.45481
347.632 10.6089
347.703 14.7978
347.774 17.8761
347.915 12.8454
347.967 11.1388
348.019 9.97085
348.122 8.63613
348.226 8.00957
348.330 7.73887
348.537 7.77661
348.640 8.00914
348.744 8.39868
348.818 8.82825
348.855 9.13716
348.891 9.57539
348.918 10.0609
348.945 10.8376
348.972 12.2666
348.986 13.4666
348.999 15.1499
349.026 19.0716
349.040 19.1068
349.053 17.3820
349.080 13.7255
349.093 12.6696
349.107 12.0029
349.130 11.3749
349.153 11.1029
349.200 11.0033
349.247 11.1337
349.293 11.3416
349.427 11.9449
349.560 12.1510
349.789 10.8707
349.812 10.6198
349.869 9.89152
349.925 9.33229
350.003 9.32273
350.038 9.23121
350.127 10.5554
350.216 10.2291
350.261 9.67403
350.305 9.28302
350.394 8.87948
350.554 8.95905
350.714 9.80335
350.835 10.9111
350.976 12.6945
351.229 16.6519
351.506 18.2210
351.644 16.3884
351.713 15.0831
351.782 13.9983
351.840 14.0039
351.897 16.6854
351.944 22.5264
351.967 25.4822
351.990 26.4184
352.082 16.3638
352.110 14.0656
352.137 12.6477
352.164 12.3125
352.191 13.6134
352.236 20.8102
352.259 24.8164
352.281 26.2110
352.326 22.6169
352.371 18.0398
352.425 14.2812
352.479 11.8772
352.533 10.2315
352.587 9.03512
352.744 6.89953
352.900 5.77288
353.057 5.19009
353.213 4.99873
353.370 5.18363
353.526 5.89117
353.604 6.61341
353.683 7.91144
353.722 9.03018
353.761 10.8196
353.800 13.9906
353.820 16.5453
353.839 20.0883
353.882 30.8244
353.901 33.0634
353.931 27.6640
353.962 19.4162
353.989 14.8514
354.016 12.2773
354.042 10.8322
354.069 10.0206
354.122 9.32020
354.175 9.16766
354.282 9.34158
354.389 9.53173
354.602 9.20658
354.708 8.79438
354.815 8.51061
354.881 8.63652
354.947 9.40874
354.980 10.3195
355.013 11.9251
355.046 14.7722
355.079 19.8297
355.120 30.5856
355.160 41.6303
355.180 42.1120
355.200 38.5636
355.241 27.9293
355.272 21.4282
355.304 17.0558
355.336 14.1325
355.367 12.1216
355.431 9.60203
355.494 8.12310
355.557 7.15833
355.620 6.47967
355.747 5.58866
355.878 5.02153
356.010 4.65950
356.272 4.31134
356.535 4.32188
356.666 4.44158
356.797 4.65499
356.950 5.61119
357.102 7.65837
357.194 8.71132
357.285 10.0608
357.405 12.8183
357.525 17.5777
357.614 22.1065
357.702 23.3748
357.879 15.6340
357.896 15.0612
357.934 13.9565
357.972 13.0520
358.049 11.6340
358.202 9.61454
358.354 8.30637
358.431 7.97856
358.507 8.01481
358.557 8.37900
358.606 9.24686
358.656 11.0896
358.705 14.8241
358.751 20.5902
358.798 24.5127
358.890 15.7738
358.933 12.6028
358.975 10.8469
359.018 9.97271
359.061 9.67837
359.146 10.3738
359.231 12.5753
359.332 14.7601
359.433 10.6903
359.489 8.49409
359.516 8.50949
359.544 10.1815
359.571 14.0406
359.585 15.9224
359.598 16.5435
359.636 12.4496
359.652 10.4880
359.678 8.21348
359.704 6.74647
359.730 5.76539
359.756 5.07823
359.808 4.18569
359.860 3.64207
359.964 3.02438
360.068 2.69482
360.276 2.37616
360.483 2.25198
360.899 2.24574
361.314 2.42857
361.730 2.78422
362.145 3.36978
362.561 4.34692
362.768 5.17542
362.872 5.92396
362.976 7.64369
363.057 10.6165
363.138 13.3784
363.220 14.0898
363.301 14.6375
363.385 15.8863
363.468 17.9987
363.590 23.0671
363.677 28.5208
363.764 35.1368
363.796 37.4832
363.844 40.6234
363.915 42.5645
363.958 38.2407
364.001 30.9474
364.066 22.0557
364.143 16.6683
364.219 14.1946
364.342 12.7580
364.465 12.7932
364.711 15.2951
364.956 20.5871
365.202 29.6963
365.328 36.8423
365.454 47.1164
365.553 59.1651
365.603 67.1709
365.652 76.2732
365.714 85.0359
365.777 76.9306
365.839 52.2926
365.870 43.5616
365.902 42.1213
365.927 49.0636
365.952 59.8573
365.977 59.2220
366.001 50.4861
366.019 45.1404
366.037 41.3262
366.069 37.2462
366.101 35.2131
366.151 33.9187
366.202 33.6289
366.302 33.9917
366.403 34.6529
366.503 35.4454
366.619 36.8050
366.721 38.9195
366.823 42.7938
366.924 49.9640
367.026 61.3434
367.115 65.6819
367.221 50.1805
367.229 49.4360
367.252 48.4606
367.276 49.3678
367.322 56.3815
367.415 75.8315
367.488 74.0285
367.560 61.1555
367.644 46.9942
367.727 36.8197
367.826 28.3792
367.975 19.4806
368.124 13.6496
368.273 11.9556
368.422 13.5702
368.691 16.2831
368.960 16.4561
369.308 15.3954
369.655 14.2775
370.003 13.6647
370.350 14.0543
370.586 15.4212
370.822 18.6864
370.939 21.6880
371.057 26.3140
371.175 33.4564
371.293 43.9408
371.459 60.2407
371.541 63.0076
371.624 62.1138
371.664 64.0877
371.703 73.3918
371.729 87.6216
371.763 115.951
371.780 123.848
371.797 119.638
371.831 90.8382
371.865 66.8094
371.910 50.0612
371.954 42.3057
372.026 39.3678
372.098 45.4804
372.201 71.5167
372.253 86.8796
372.304 92.8689
372.408 73.4810
372.471 58.7873
372.533 48.1401
372.596 42.2059
372.627 41.7304
372.658 44.5212
372.688 52.6917
372.718 60.5984
372.741 52.9568
372.764 40.8959
372.791 31.7874
372.817 26.7427
372.844 23.6774
372.870 21.6161
372.904 19.7515
372.949 17.9709
372.993 16.6438
373.083 14.7578
373.262 12.6641
373.440 11.9175
373.619 12.2960
373.798 14.1947
373.887 16.1238
373.977 19.2379
374.066 24.4640
374.155 33.8029
374.245 51.8697
374.289 66.9373
374.334 87.6881
374.371 108.739
374.409 128.411
374.446 137.613
374.483 129.567
374.558 84.9021
374.633 50.2022
374.687 36.3635
374.771 26.5729
374.855 25.3627
374.939 24.6904
375.023 21.1872
375.149 17.1384
375.275 15.8331
375.401 16.4642
375.527 18.6665
375.712 24.0533
375.804 27.0998
375.851 28.8465
375.897 31.0840
375.920 31.9886
375.957 29.4213
375.987 23.2656
376.017 18.8567
376.054 16.1722
376.091 14.5687
376.128 13.2750
376.165 12.1704
376.202 11.3742
376.239 11.2577
376.276 12.8066
376.295 14.9260
376.313 18.6998
376.325 22.4523
376.362 40.9903
376.381 49.4371
376.400 51.5711
376.437 41.7413
376.474 31.0035
376.517 23.2393
376.560 18.6189
376.603 15.6463
376.646 13.5920
376.733 10.9311
376.819 9.28835
376.991 7.41939
377.163 6.51907
377.335 6.21576
377.508 6.45960
377.680 7.40355
377.852 9.37585
378.065 13.1613
378.172 14.4904
378.278 14.3539
378.703 7.67911
378.916 5.85355
379.130 4.94575
379.343 4.70493
379.450 4.95866
379.503 5.28756
379.556 5.78656
379.598 5.97901
379.639 5.20876
379.680 3.96199
379.721 3.33733
379.757 3.17869
379.793 3.17035
379.864 3.30660
380.007 3.79357
380.120 4.37051
380.232 4.89721
380.288 4.72494
380.345 4.04540
380.457 2.62871
380.571 2.28031
380.686 2.42544
380.915 3.15940
381.143 4.41860
381.372 6.72247
381.494 8.76214
381.615 11.7535
381.858 21.5938
381.980 26.8258
382.101 28.5116
382.344 20.7204
382.512 15.3402
382.680 12.8602
382.848 13.7016
382.932 15.9176
383.016 19.9289
383.050 22.1320
383.150 29.5423
383.250 32.8322
383.312 31.4057
383.378 30.9455
383.443 34.5924
383.509 38.7447
383.574 37.8702
383.607 35.8126
383.741 26.0810
383.876 19.6870
384.010 16.0088
384.145 13.8696
384.279 12.6934
384.413 12.2908
384.548 12.7776
384.682 14.6697
384.941 23.1251
385.030 24.6201
385.200 26.8360
385.265 29.9963
385.329 35.5982
385.408 42.7185
385.447 41.8008
385.486 36.2150
385.564 21.9258
385.642 13.5203
385.716 9.55607
385.789 6.87534
385.823 5.36116
385.858 3.38787
385.875 2.96693
385.892 3.72555
385.926 5.87998
385.960 6.55804
385.995 6.62588
386.063 6.41193
386.158 6.08102
386.252 5.82055
386.442 5.44297
386.820 4.89528
386.964 4.67714
387.108 4.42192
387.180 4.29484
387.252 4.24292
387.288 4.32112
387.324 4.58922
387.360 5.28006
387.396 6.86932
387.444 11.2475
387.468 13.7256
387.492 15.1247
387.588 12.1295
387.643 10.3220
387.698 9.19013
387.808 7.93659
387.919 7.24036
388.029 6.71035
388.249 5.33678
388.360 4.01845
388.415 3.10661
388.470 2.18281
388.505 1.83820
388.539 2.00132
388.574 2.99128
388.608 4.87430
388.677 9.39366
388.746 11.7205
388.815 11.4720
388.883 9.36268
388.990 4.65369
389.016 3.89220
389.043 3.52338
389.069 3.58243
389.096 4.05644
389.149 6.05608
389.203 9.10170
389.309 17.6294
389.346 21.1632
389.408 26.0325
389.471 25.2072
389.595 13.2645
389.657 10.5993
389.719 9.82565
389.843 10.8940
389.965 13.5940
390.087 17.6443
390.208 23.5821
390.330 32.3185
390.474 45.7609
390.617 50.5655
390.760 36.4904
390.903 23.1138
391.006 18.3331
391.109 16.3440
391.314 17.1713
391.417 19.3099
391.519 22.7540
391.571 25.2409
391.622 28.6582
391.648 30.9679
391.674 33.9303
391.699 37.8138
391.712 40.0971
391.725 42.3624
391.743 43.6358
391.762 35.4646
391.763 34.3443
391.768 29.6310
391.773 24.6210
391.783 15.5514
391.792 9.91947
391.802 7.71325
391.811 7.57976
391.819 8.34455
391.837 10.7691
391.854 13.2637
391.871 15.4664
391.906 18.9952
391.940 21.6632
392.010 25.5129
392.079 28.1253
392.356 31.1826
392.505 30.5024
392.795 31.7745
392.940 35.7517
393.085 44.5112
393.167 53.9299
393.248 70.0313
393.268 75.3907
393.321 91.5888
393.374 104.257
393.427 100.442
393.480 81.5936
393.579 51.2043
393.628 43.2456
393.678 38.2492
393.776 32.7774
393.875 29.9284
394.028 27.1283
394.181 24.8512
394.498 20.5067
394.815 16.8348
394.974 15.4957
395.132 14.9400
395.211 15.3751
395.291 17.0301
395.330 18.8031
395.370 21.7528
395.409 26.6357
395.449 34.3689
395.489 44.8686
395.512 52.0233
395.535 61.2005
395.548 64.5787
395.578 57.3899
395.608 45.3541
395.622 40.5602
395.658 30.9965
395.694 24.6994
395.730 20.5817
395.766 17.9325
395.837 15.8744
395.873 16.6527
395.909 19.2984
395.969 29.6334
396.028 42.1151
396.088 43.3228
396.147 38.6777
396.192 35.8190
396.236 34.2208
396.325 34.6039
396.513 40.0804
396.701 22.9267
396.824 16.1320
396.948 12.7853
397.071 10.9222
397.194 9.75250
397.441 8.36760
397.687 7.61228
398.180 7.22514
398.427 7.67365
398.673 8.85390
398.801 9.92567
398.929 11.5243
398.993 12.6642
399.057 14.2172
399.121 16.5027
399.185 19.9676
399.235 22.9009
399.285 21.9010
399.335 14.9685
399.385 9.55915
399.424 7.60146
399.471 6.61193
399.518 6.21821
399.612 5.93014
399.706 5.74577
399.800 5.53680
399.988 5.06145
400.176 4.59499
400.616 3.73841
401.055 3.24425
401.436 3.13901
401.627 3.16900
401.722 3.17794
401.817 3.16311
401.838 3.15418
401.875 3.13266
401.894 3.12646
401.913 3.16074
401.938 3.51114
401.950 3.63023
401.963 3.56965
401.982 3.45135
402.002 3.38071
402.040 3.31355
402.117 3.27949
402.271 3.41590
402.425 3.93931
402.579 5.07849
402.624 5.55625
402.721 6.81878
402.817 8.37855
403.011 12.0485
403.204 15.6718
403.397 18.8872
403.409 19.0827
403.436 19.5162
403.462 19.9444
403.516 20.7500
403.543 21.0964
403.569 21.3763
403.583 21.4886
403.596 21.5956
403.609 21.7632
403.616 21.9376
403.623 22.2586
403.633 23.4377
403.644 25.3876
403.655 26.3151
403.666 25.9724
403.674 25.5667
403.681 25.2260
403.689 24.9576
403.697 24.7539
403.713 24.4659
403.729 24.2722
403.762 23.9889
403.795 23.7532
403.861 23.2753
403.992 22.1940
404.060 21.5724
404.233 19.7084
404.407 17.3046
404.580 14.4594
404.667 13.1311
404.710 12.7391
404.732 12.7569
404.753 13.0496
404.780 13.8043
404.808 13.7507
404.815 13.3806
404.839 11.7344
404.862 10.1791
404.890 8.67206
404.919 7.50092
404.948 7.18447
404.976 8.64772
405.005 10.0016
405.034 10.1456
405.071 9.69624
405.109 9.18290
405.185 8.38158
405.335 7.58198
405.637 8.11600
405.907 10.3692
406.168 12.3514
406.298 11.8239
406.428 10.0101
406.689 5.75947
406.819 4.46062
406.949 3.84034
407.052 3.90016
407.104 4.22490
407.155 4.89148
407.207 5.90529
407.259 6.40456
407.362 5.36072
407.431 5.31424
407.522 5.93307
407.614 6.97230
407.796 9.04418
407.979 8.55791
408.161 6.28991
408.291 5.04427
408.420 4.34271
408.679 4.23681
409.112 5.69157
409.235 6.74735
409.358 9.10523
409.544 13.9094
409.594 13.6746
409.712 9.97744
409.829 6.32677
409.927 4.52603
410.025 3.50441
410.220 2.68957
410.416 2.74246
410.611 3.27219
410.734 3.34377
410.857 2.77708
410.893 2.64561
410.998 2.72472
411.103 3.35408
411.390 5.95837
411.676 7.85574
411.959 8.33712
412.242 8.79056
412.459 9.27556
412.605 8.36387
412.787 6.52603
412.969 5.30397
413.266 4.34434
413.563 3.94651
414.158 3.96025
414.455 4.39329
414.752 5.36435
415.049 7.52411
415.198 9.55792
415.346 12.8124
415.536 19.7522
415.725 28.2301
415.820 29.6059
415.915 27.3254
416.105 17.9744
416.163 15.6722
416.222 14.3799
416.251 14.4759
416.280 15.5782
416.309 18.6210
416.338 25.3394
416.373 40.1066
416.390 47.9100
416.407 51.9860
416.442 46.5313
416.476 36.0682
416.506 29.3020
416.536 24.7434
416.566 21.6480
416.596 19.4949
416.656 16.8671
416.716 15.5547
416.835 15.1671
416.955 17.0572
417.226 24.6245
417.362 20.1542
417.497 13.4371
417.598 9.88588
417.699 7.46137
417.800 5.70588
417.901 4.37058
417.976 3.98303
418.050 4.64902
418.124 5.35347
418.198 5.47159
418.357 5.17071
418.515 4.96150
418.833 5.15747
419.150 6.39843
419.308 7.65939
419.467 9.55386
419.549 10.8302
419.639 12.4466
419.683 13.1272
419.728 12.7849
419.765 10.3285
419.801 6.58215
419.819 5.30693
419.838 4.64463
419.874 4.44829
419.932 4.96505
419.989 5.35331
420.095 5.52139
420.200 5.38424
420.364 5.15750
420.528 5.20248
420.700 5.68914
420.872 6.77762
421.044 8.63106
421.216 11.1610
421.333 13.0171
421.450 15.2378
421.512 17.2505
421.573 20.8750
421.623 24.6322
421.648 25.3645
421.673 24.3106
421.773 14.1487
421.838 10.9503
421.903 9.35193
421.962 8.47736
422.022 7.87512
422.140 7.09312
422.377 6.40874
422.609 6.48838
422.841 7.28337
422.956 8.04542
423.072 9.29260
423.130 10.3142
423.188 11.9649
423.217 13.2674
423.246 15.1717
423.275 18.1621
423.304 23.0949
423.325 28.6251
423.355 38.4547
423.370 41.6920
423.384 41.2894
423.444 22.4510
423.473 17.3812
423.502 14.8209
423.531 13.5348
423.561 12.9124
423.619 12.6328
423.678 12.9716
423.795 14.5239
423.912 16.8707
424.295 26.7890
424.487 25.1393
424.678 17.9533
424.826 12.9667
424.975 9.61766
425.123 7.56817
425.271 6.40518
425.394 5.95240
425.516 6.01381
425.577 6.37879
425.638 7.24884
425.669 8.07298
425.700 9.41504
425.730 11.6996
425.761 15.5692
425.789 20.0503
425.803 21.1388
425.817 20.2525
425.873 9.02499
425.892 6.98822
425.911 5.73592
425.949 4.46524
425.987 3.93505
426.025 3.70354
426.101 3.58075
426.177 3.63255
426.329 3.94510
426.481 4.48907
426.663 5.66679
426.753 6.73201
426.844 8.58322
426.885 9.92265
426.925 11.8009
427.007 17.2572
427.047 18.5014
427.088 16.3180
427.169 10.6521
427.170 10.6125
427.173 10.5131
427.175 10.4184
427.180 10.2464
427.191 9.95252
427.211 9.53898
427.252 9.22749
427.334 9.78299
427.497 12.8925
427.575 14.6269
427.691 16.4157
427.982 14.0422
428.080 13.5788
428.129 13.9679
428.177 15.3192
428.236 19.1353
428.294 17.6093
428.338 15.2954
428.382 13.2653
428.470 10.2259
428.554 8.45766
428.707 6.87563
428.859 6.16776
429.127 5.24025
429.413 4.21892
429.699 3.61313
429.979 3.48630
430.259 3.77867
430.399 4.13419
430.539 4.74210
430.679 5.84868
430.749 6.74767
430.819 7.98583
430.927 10.1488
430.981 10.4438
431.035 9.63621
431.143 6.84785
431.251 5.32512
431.328 4.94374
431.404 4.87182
431.499 5.02453
431.593 5.30233
431.709 5.46654
431.825 4.85625
431.941 3.96781
432.056 3.56421
432.255 3.45307
432.453 3.39700
432.924 3.17893
433.159 3.44183
433.394 4.32980
433.502 5.00813
433.768 7.03446
434.034 8.04826
434.320 7.88592
434.605 7.79940
434.674 7.84839
434.905 8.20275
435.137 8.81560
435.368 9.82637
435.483 10.7111
435.599 12.2137
435.696 14.4577
435.793 18.6797
435.841 22.2945
435.889 27.8126
435.938 36.6156
435.986 50.9160
436.038 73.5126
436.089 88.7335
436.115 83.3169
436.141 70.2088
436.192 42.3208
436.242 25.9383
436.292 17.5457
436.342 13.2597
436.392 11.0869
436.492 9.73821
436.592 10.3423
436.775 14.0623
436.953 18.7216
437.042 19.7464
437.131 18.7404
437.309 11.1836
437.398 6.55404
437.443 4.53737
437.487 3.02191
437.514 2.51321
437.541 2.46848
437.574 3.27680
437.608 5.23236
437.675 11.7188
437.741 16.8891
437.808 17.8999
437.875 16.6675
437.941 14.9193
438.074 11.9280
438.192 10.1407
438.311 9.00220
438.548 8.17163
438.666 8.46894
438.784 9.46913
438.903 11.7522
438.962 13.7728
439.021 16.7201
439.098 21.9361
439.175 24.6379
439.214 22.2947
439.253 17.9425
439.330 9.85759
439.374 7.14971
439.418 5.51321
439.508 4.03695
439.598 3.70742
439.778 3.92719
439.959 4.53351
440.139 6.09660
440.177 6.59925
440.266 8.02261
440.354 9.70969
440.531 12.1786
440.708 10.4167
440.885 7.01484
441.054 4.84090
441.223 3.68207
441.392 3.14161
441.561 2.98723
441.730 3.11622
441.899 3.49777
442.068 4.13966
442.153 4.57252
442.237 5.11790
442.281 5.48855
442.326 5.98146
442.370 6.72983
442.415 8.06817
442.447 9.86931
442.479 13.1835
442.511 19.4086
442.543 29.0977
442.566 34.6019
442.589 34.0641
442.635 22.9916
442.671 16.1882
442.700 12.5262
442.729 9.91338
442.788 6.37253
442.850 4.02403
442.911 2.84364
442.942 2.71527
442.973 2.86707
443.034 3.70247
443.109 4.77934
443.189 5.28656
443.269 5.21367
443.429 4.41344
443.693 3.19415
443.825 2.90639
443.957 3.01498
444.038 3.31413
444.119 3.34582
444.281 2.38636
444.374 2.06971
444.467 1.92559
444.654 1.95834
444.840 2.44318
444.933 2.98721
445.026 3.79834
445.072 3.97768
445.118 3.42311
445.165 2.70951
445.211 2.70586
445.314 4.06630
445.518 7.98920
445.721 10.1088
445.925 11.4800
446.026 13.7455
446.128 18.6354
446.186 23.5278
446.243 30.9929
446.329 48.8561
446.414 69.2468
446.457 71.5869
446.500 65.2731
446.585 41.9364
446.658 26.3887
446.732 17.1184
446.805 12.6210
446.842 12.3759
446.878 14.3103
446.928 22.2813
446.977 32.7836
447.027 33.4296
447.077 27.5428
447.126 22.0910
447.176 18.2317
447.275 13.6929
447.374 11.3436
447.473 10.0736
447.672 9.32394
447.870 10.5099
447.997 12.5243
448.123 14.9407
448.186 15.0573
448.250 13.4675
448.376 7.64271
448.429 5.75673
448.482 4.45160
448.588 3.09935
448.737 2.67397
448.887 2.99637
449.036 3.73407
449.185 4.94425
449.266 5.96844
449.346 7.52182
449.427 10.0764
449.507 14.5013
449.590 21.4690
449.631 24.3518
449.672 24.4191
449.727 19.4991
449.781 13.1410
449.823 9.44924
449.837 8.48198
449.851 7.70724
449.879 6.36487
449.919 4.94755
449.958 4.01938
450.037 3.08876
450.116 3.04074
450.195 4.00945
450.261 5.87850
450.327 7.36889
450.393 6.40256
450.459 4.76224
450.540 3.47798
450.622 2.82607
450.785 2.33411
450.948 2.27301
451.111 2.39819
451.306 2.67465
451.501 2.98761
451.599 3.11882
451.696 3.21221
451.745 3.24156
451.794 3.25899
451.818 3.26377
451.843 3.26678
451.867 3.26979
451.879 3.27264
451.891 3.27801
451.905 3.29031
451.911 3.30114
451.918 3.31717
451.925 3.34067
451.931 3.37087
451.938 3.39941
451.944 3.40370
451.954 3.34477
451.964 3.27569
451.972 3.23711
451.981 3.21272
451.989 3.19584
451.997 3.18292
452.010 3.16667
452.023 3.15256
452.036 3.13916
452.049 3.12591
452.074 3.09900
452.100 3.07107
452.151 3.01198
452.202 2.95013
452.305 2.82470
452.407 2.70714
452.612 2.52564
452.817 2.43829
453.175 2.53478
453.548 3.05179
453.734 3.62275
453.827 4.10295
453.920 4.82837
453.984 5.38621
454.048 5.38241
454.112 4.47706
454.176 3.75958
454.252 3.54146
454.327 3.62655
454.478 4.02787
454.804 4.97441
455.130 5.56632
455.456 5.20125
455.782 3.56864
455.814 3.40767
455.896 3.09931
456.003 3.04698
456.110 3.47075
456.323 5.03478
456.444 5.65676
456.751 6.51014
456.948 7.44444
457.074 8.33189
457.274 10.3272
457.473 13.2097
457.783 18.5073
457.997 19.5970
458.431 11.4540
458.528 11.5492
458.624 13.9798
458.732 20.8471
458.835 29.3585
458.910 31.6243
458.947 31.6725
458.966 32.0308
458.985 33.1835
459.000 35.3310
459.015 39.4410
459.031 46.9170
459.046 58.6939
459.049 61.3719
459.057 67.8812
459.064 72.8684
459.079 73.0273
459.113 47.0668
459.131 37.6870
459.148 31.4978
459.165 27.2863
459.183 24.2760
459.217 20.2632
459.252 17.6813
459.286 15.8563
459.321 14.4877
459.390 12.5692
459.459 11.3058
459.529 10.4376
459.667 9.40823
459.805 8.94177
459.943 8.82123
460.219 9.27554
460.603 10.3397
460.804 9.95543
461.388 6.06326
461.683 5.28811
461.831 5.50299
461.978 6.59337
462.060 7.53315
462.141 7.65896
462.290 6.97802
462.304 6.97896
462.334 6.99352
462.363 6.99467
462.423 6.80841
462.541 5.38440
462.667 3.81499
462.792 3.06015
462.931 2.77097
463.070 2.74419
463.347 3.12993
463.625 4.27565
463.763 5.47763
463.902 7.54369
464.031 10.2625
464.159 11.6904
464.415 9.60481
464.532 10.5611
464.648 13.1600
464.705 14.9686
464.847 19.8173
464.988 21.2862
465.045 20.3543
465.082 19.4959
465.119 18.3391
465.224 15.1319
465.329 12.7034
465.493 10.9095
465.657 11.4951
465.696 11.9971
465.783 13.6091
465.869 15.7469
466.042 19.0328
466.387 15.4162
466.498 15.2256
466.608 16.3348
466.637 16.8264
466.737 18.6532
466.836 18.9570
467.035 15.0982
467.090 15.0853
467.145 16.1305
467.199 18.8423
467.254 24.7735
467.279 29.3542
467.303 35.8204
467.352 53.4533
467.379 56.9875
467.406 47.5922
467.432 33.2038
467.449 25.5535
467.484 15.6644
467.519 10.8092
467.554 8.39921
467.589 7.16133
467.624 6.50362
467.658 6.15065
467.728 5.85245
467.815 5.75144
467.903 5.76753
468.077 6.19504
468.233 7.09503
468.402 8.50751
468.572 10.0906
468.741 11.7137
468.825 12.9570
468.868 14.0294
468.910 15.7986
468.948 18.5050
468.986 22.9077
469.046 32.2090
469.077 34.0160
469.107 32.0830
469.167 24.5735
469.227 19.4296
469.272 17.1811
469.317 15.7466
469.407 14.1936
469.588 13.4152
469.732 13.7995
470.035 14.9406
470.338 12.6577
470.642 8.77857
470.945 6.44485
471.112 5.83538
471.279 5.66980
471.446 6.14939
471.530 6.86244
471.613 8.21946
471.813 15.4262
471.913 18.5197
472.012 22.6620
472.037 24.1795
472.120 27.8238
472.162 25.9725
472.203 21.4229
472.286 12.2816
472.327 9.40828
472.368 7.48807
472.420 5.94076
472.473 4.99837
472.577 4.03358
472.682 3.64968
472.786 3.53664
472.995 3.76721
473.204 4.55657
473.460 5.42547
473.715 5.34060
473.960 6.82682
474.205 10.2099
474.430 15.5135
474.542 19.0639
474.654 24.4635
474.662 24.9970
474.683 26.5153
474.704 28.1879
474.746 31.7120
474.830 35.3560
474.999 26.8192
475.102 23.5895
475.217 24.0433
475.332 30.2368
475.398 36.3853
475.452 39.9306
475.505 38.5752
475.586 29.1834
475.679 19.9361
475.774 15.4111
475.894 13.9501
476.014 15.9505
476.110 19.2003
476.206 19.3856
476.398 12.2866
476.476 10.7796
476.555 10.0102
476.712 9.88134
476.868 11.3950
476.947 13.0958
477.025 16.0493
477.082 19.6617
477.140 25.0730
477.195 29.9362
477.222 29.7951
477.249 27.0662
477.315 17.2929
477.359 12.7630
477.391 10.6062
477.406 9.79658
477.422 9.34130
477.435 9.75771
477.448 11.0448
477.475 11.1003
477.491 10.5409
477.508 10.1643
477.540 9.86351
477.605 10.3223
477.734 13.6601
477.870 19.1101
477.964 21.8354
478.057 21.5636
478.380 10.8219
478.569 7.58935
478.758 6.32367
478.853 6.27894
478.947 6.76691
479.042 8.22078
479.136 11.6927
479.210 16.2759
479.283 18.6381
479.314 17.4789
479.430 9.18936
479.464 7.57303
479.540 5.58830
479.615 4.69257
479.736 4.08731
479.857 3.98599
479.978 4.25521
480.098 4.95483
480.219 6.31052
480.340 8.81322
480.461 13.4554
480.582 22.0375
480.720 38.7602
480.870 55.4684
481.014 51.3159
481.158 38.8330
481.305 29.2899
481.453 23.5208
481.600 20.1348
481.748 18.1870
482.042 16.7217
482.337 17.0186
482.602 17.9785
482.734 18.6294
482.800 19.0569
482.866 19.6505
482.922 20.4383
482.950 21.0228
482.979 21.8385
483.007 23.0576
483.035 25.0254
483.049 26.5191
483.063 28.5431
483.077 31.2833
483.091 34.2404
483.107 32.1619
483.115 24.7399
483.123 15.4027
483.131 8.86406
483.135 7.11208
483.139 6.14854
483.147 5.60972
483.155 5.99837
483.163 6.71069
483.170 7.47242
483.186 8.85965
483.202 9.96083
483.218 10.8132
483.243 11.7961
483.267 12.5061
483.316 13.4635
483.382 14.2767
483.448 14.8723
483.580 15.9818
483.749 17.9416
483.918 20.8891
484.100 22.9826
484.214 20.6512
484.328 16.4774
484.440 14.1615
484.552 14.6302
484.737 18.1096
484.904 16.8250
485.070 11.6409
485.182 8.99435
485.293 7.71136
485.405 8.07103
485.516 10.9248
485.587 14.5878
485.658 18.9510
485.728 21.2326
485.834 17.8391
485.940 12.6248
486.049 9.09577
486.158 7.06275
486.267 5.88418
486.376 5.20709
486.485 4.86012
486.594 4.80286
486.649 4.92804
486.703 5.26869
486.758 6.14141
486.785 7.04659
486.812 8.55684
486.851 11.9384
486.870 13.5230
486.889 14.1381
486.965 10.3154
487.004 8.98944
487.042 8.28408
487.118 7.79268
487.270 8.24586
487.574 11.6802
487.879 18.8566
488.183 31.5867
488.426 42.9108
488.547 44.8233
488.608 43.3547
488.639 41.5772
488.669 38.7540
488.688 36.2868
488.707 33.5278
488.726 32.2978
488.736 34.3039
488.745 40.0203
488.755 49.8811
488.765 60.5239
488.784 70.0460
488.803 68.1740
488.822 64.2445
488.839 61.0618
488.856 58.3516
488.890 54.0263
488.923 50.5895
488.957 47.6785
489.054 40.8168
489.150 35.2366
489.344 26.6434
489.537 20.6370
489.730 16.4458
489.979 12.8071
490.228 10.4535
490.476 8.97759
490.725 8.25721
491.116 8.95561
491.311 9.12905
491.506 8.08978
491.604 7.48376
491.654 7.11081
491.678 6.81134
491.703 6.31201
491.717 6.08007
491.731 6.45583
491.759 7.42748
491.800 7.51641
491.841 7.48010
491.922 7.53142
492.086 8.17796
492.250 9.74290
492.414 12.7318
492.424 12.9713
492.463 13.9717
492.503 15.0447
492.581 17.2072
492.677 18.9042
492.772 18.3293
492.913 14.8876
493.098 11.5738
493.129 11.1914
493.197 10.4276
493.266 9.74625
493.402 8.69493
493.525 8.35170
493.615 8.49481
493.846 8.38628
494.006 7.69877
494.166 7.29709
494.296 7.45379
494.362 7.83203
494.427 8.58547
494.492 10.0489
494.557 13.0517
494.590 15.7792
494.622 20.1485
494.655 27.4952
494.687 39.4497
494.718 50.1244
494.734 48.7018
494.749 42.6256
494.771 35.4206
494.793 36.3827
494.811 42.4471
494.847 61.3521
494.884 68.1179
494.929 52.7400
494.974 36.4557
495.008 28.1411
495.043 22.5787
495.113 16.0867
495.182 12.6574
495.252 10.6781
495.356 9.20186
495.453 8.67493
495.654 7.14652
495.920 5.42284
496.185 5.05330
496.325 5.62357
496.465 7.11836
496.535 8.48095
496.605 10.5636
496.675 13.7638
496.745 18.3328
496.836 22.8686
496.881 21.0261
496.926 16.4720
497.013 8.16629
497.061 5.54304
497.108 3.93779
497.167 2.81002
497.226 2.23360
497.344 1.87898
497.462 2.00946
497.581 2.37556
497.817 3.58299
498.053 5.34376
498.253 6.88751
498.452 7.49862
498.851 5.36280
499.050 4.29274
499.250 3.65758
499.648 3.38947
499.980 3.94767
500.311 5.27336
500.655 7.54143
500.998 9.59167
501.156 9.94447
501.313 10.3579
501.392 10.9990
501.471 12.4686
501.550 15.8661
501.589 19.0344
501.628 23.7441
501.684 31.3992
501.710 32.2255
501.735 29.4363
501.789 18.4293
501.842 11.1923
501.896 8.04385
501.949 6.93319
502.003 6.92184
502.056 7.74137
502.110 9.48895
502.163 12.5621
502.217 17.7186
502.270 25.9781
502.362 46.4574
502.408 53.3806
502.454 54.0662
502.546 47.7570
502.591 47.3210
502.614 48.9571
502.637 52.5491
502.660 59.0232
502.683 69.0621
502.710 78.6731
502.723 73.4230
502.736 58.8796
502.763 28.8997
502.777 20.7960
502.790 16.1479
502.817 12.2066
502.844 11.2363
502.870 11.2989
502.897 11.7691
502.935 12.7374
502.973 13.8799
503.049 16.3246
503.200 18.4386
503.309 15.3452
503.406 11.8427
503.503 9.55665
503.631 8.76682
503.758 10.4932
503.836 13.0089
503.921 15.7298
503.963 15.4557
504.005 13.4308
504.090 7.67074
504.132 5.55109
504.174 4.10657
504.206 3.36117
504.273 2.49052
504.339 2.28831
504.406 2.70959
504.472 3.93980
504.566 7.19095
504.660 9.54686
504.847 8.16623
504.980 8.15375
505.112 10.1264
505.250 13.9652
505.387 15.2789
505.525 13.6710
505.663 13.1399
505.863 15.2925
506.104 19.8950
506.345 20.1469
506.554 17.1620
506.659 16.3840
506.763 17.1265
506.828 18.4050
506.882 18.9938
506.935 18.0816
507.107 12.3621
507.231 10.8487
507.356 10.8330
507.480 12.3889
507.542 14.1842
507.604 17.1015
507.692 22.5263
507.736 23.8131
507.780 22.9437
507.868 18.5318
507.955 15.6024
507.987 15.0393
508.038 14.6156
508.095 14.6713
508.204 14.6094
508.456 12.3114
508.708 7.50405
508.831 5.47798
508.954 4.27022
509.045 4.60355
509.135 6.14286
509.225 6.81974
509.315 6.32957
509.379 5.83869
509.559 4.83222
509.738 4.39660
509.918 4.37662
510.097 4.75487
510.277 5.69459
510.457 7.73389
510.546 9.60757
510.636 12.6219
510.726 17.6679
510.816 25.5640
510.878 30.2824
510.909 29.8998
510.939 26.3406
511.008 13.8484
511.036 12.4283
511.063 14.4419
511.107 20.8017
511.151 22.9826
511.222 17.7127
511.293 12.1395
511.379 8.14993
511.464 6.02084
511.549 4.88495
511.634 4.32821
511.804 4.40087
511.889 5.17415
511.975 6.95606
512.039 8.97960
512.104 9.52693
512.234 6.61092
512.305 6.04931
512.376 6.06315
512.517 7.01173
512.801 11.5241
513.046 17.6782
513.290 20.6744
513.534 16.7808
513.656 15.0366
513.778 15.7175
513.886 20.9071
513.948 26.8570
514.004 32.9608
514.060 35.2142
514.078 34.4360
514.125 29.9085
514.173 24.4248
514.270 15.7357
514.334 12.0562
514.399 9.44412
514.527 6.04410
514.656 4.09533
514.720 3.73543
514.784 4.24094
514.824 5.30003
514.864 7.05317
514.903 9.23905
514.923 10.3057
514.943 11.3222
514.953 11.8781
514.972 12.9594
515.002 12.8318
515.017 12.5599
515.032 12.2934
515.062 11.7202
515.122 10.4895
515.235 8.58315
515.348 7.37514
515.573 6.39745
515.985 7.54313
516.396 7.40567
516.646 7.65068
516.895 8.77919
517.145 11.6073
517.269 14.3080
517.394 18.2469
517.422 19.1975
517.514 21.8350
517.633 22.5673
517.660 21.8833
517.719 19.8361
517.779 18.1456
517.838 17.6826
517.897 18.9235
517.965 23.2100
518.033 31.8790
518.094 40.9647
518.125 41.2977
518.155 36.6879
518.216 23.0513
518.277 15.8916
518.341 14.3470
518.405 16.2068
518.469 21.0347
518.532 29.9113
518.575 37.5344
518.617 40.8568
518.628 40.1844
518.652 37.0145
518.676 33.1708
518.724 28.1401
518.766 26.9796
518.807 27.4140
518.891 29.4991
519.058 29.5881
519.279 22.3050
519.499 16.2468
519.705 13.3862
519.912 12.8277
520.015 13.5372
520.118 15.2602
520.221 18.6370
520.324 24.5925
520.412 31.2320
520.499 34.7950
520.557 33.0398
520.673 24.6834
520.789 17.9624
520.857 15.2719
521.036 11.3703
521.126 10.9840
521.215 11.6593
521.309 13.8527
521.356 15.8370
521.403 18.8105
521.450 23.4492
521.497 31.0934
521.545 44.6725
521.592 68.9555
521.631 93.4970
521.651 97.2717
521.670 89.5978
521.710 56.7353
521.749 32.8966
521.779 23.4074
521.809 18.3573
521.857 14.9404
521.905 14.1851
522.000 15.1764
522.096 15.8340
522.191 14.7935
522.336 12.1650
522.408 11.9798
522.444 12.7718
522.481 14.6153
522.513 16.6074
522.545 15.5990
522.574 11.5837
522.609 7.61821
522.652 5.33917
522.694 4.29467
522.737 3.72669
522.779 3.37481
522.864 2.98760
522.949 2.86380
523.119 3.34683
523.204 4.08937
523.289 5.31249
523.450 8.71795
523.610 10.3832
523.716 10.1671
523.769 10.5364
523.822 12.1229
523.864 14.6615
523.907 16.1859
523.930 15.2733
523.991 10.8816
524.043 8.49649
524.096 7.22986
524.148 6.51691
524.201 6.10053
524.306 5.76663
524.411 5.88612
524.516 6.44739
524.621 7.62744
524.726 9.85651
524.831 13.7044
524.944 17.4438
525.001 16.5416
525.057 14.0103
525.170 9.79377
525.283 8.65412
525.345 8.88045
525.573 11.9770
525.801 13.2629
526.029 10.5710
526.257 8.19222
526.416 7.51653
526.574 7.70080
526.733 8.98194
526.891 12.0120
527.186 22.8477
527.260 23.1831
527.333 20.7703
527.480 12.8580
527.565 10.4845
527.619 10.8474
527.673 12.8298
527.781 18.4465
527.871 20.2379
527.961 19.9695
527.998 19.7921
528.138 19.1310
528.314 17.0673
528.500 17.0571
528.685 18.7745
528.925 21.5778
529.046 22.0710
529.106 21.9678
529.136 21.8765
529.166 21.8315
529.184 21.8677
529.193 21.8879
529.202 21.8242
529.213 21.2634
529.218 20.5895
529.224 19.7644
529.238 18.4894
529.246 18.4116
529.253 18.4345
529.267 18.4913
529.282 18.4743
529.309 18.2837
529.337 17.9838
529.391 17.2643
529.501 15.8535
529.719 14.5377
529.836 15.1616
529.953 17.2172
530.070 21.4067
530.187 28.1139
530.273 32.6775
530.358 30.6368
530.369 29.4749
530.383 27.5917
530.437 17.1853
530.477 10.7348
530.497 9.30538
530.516 9.01226
530.550 10.0060
530.599 11.9310
530.647 12.8796
530.749 11.5206
530.816 9.63984
530.850 9.04451
530.942 8.06905
531.033 7.55613
531.217 7.70199
531.308 8.62026
531.400 10.5934
531.491 14.5042
531.583 21.6615
531.704 31.9186
531.764 30.1884
531.824 23.8958
531.891 16.7561
531.957 12.0701
532.011 10.5500
532.065 11.0098
532.140 12.6740
532.232 12.4693
532.323 10.9649
532.412 9.61149
532.500 8.57046
532.677 7.19196
532.854 6.35388
533.031 5.89826
533.150 6.11690
533.268 7.11976
533.505 8.55848
533.789 9.47146
534.074 11.4070
534.216 13.1321
534.358 15.8482
534.429 17.8472
534.500 20.5346
534.571 24.2029
534.642 28.9033
534.726 33.3824
534.768 32.7621
534.810 29.5511
534.876 22.8944
534.942 18.6877
534.978 17.6137
535.059 17.0576
535.141 17.8237
535.304 20.1920
535.631 20.6155
535.976 15.9342
536.320 14.1022
536.599 16.2992
536.831 19.0871
537.062 17.6445
537.293 15.0436
537.409 16.0455
537.524 19.8268
537.547 21.0097
537.612 25.2163
537.677 30.4897
537.807 38.9847
537.937 34.2170
538.066 23.4767
538.205 15.4425
538.343 11.0040
538.482 8.61211
538.621 7.39580
538.759 6.98082
538.898 7.28524
539.036 8.44756
539.175 10.7725
539.338 14.8694
539.500 17.0774
539.825 10.3737
540.042 7.34008
540.258 6.29617
540.412 6.58904
540.566 7.71936
540.765 9.82744
540.874 11.0484
541.118 11.5812
541.207 12.3956
541.251 13.9359
541.295 16.7307
541.356 20.5707
541.387 19.5757
541.417 16.2898
541.471 10.0811
541.505 7.55779
541.538 5.88695
541.609 3.93730
541.679 2.98481
541.750 2.46084
541.821 2.15471
541.962 1.91689
542.103 2.17525
542.210 2.78426
542.316 3.02122
542.423 2.74964
542.529 2.58110
542.690 2.81855
542.770 3.30637
542.851 4.28239
542.935 5.71682
542.977 6.06538
543.018 5.84720
543.102 4.60503
543.186 3.67256
543.259 3.24455
543.332 3.02739
543.477 2.91432
543.768 3.29530
544.059 4.42427
544.205 5.57891
544.350 7.60910
544.468 9.81286
544.585 10.6122
544.821 9.46127
544.952 10.4674
545.082 12.7501
545.213 16.5265
545.343 22.1971
545.534 32.7974
545.725 36.0754
545.916 29.1154
546.106 24.9450
546.254 27.0940
546.327 30.1760
546.401 33.6414
546.454 33.5042
546.506 25.0564
546.547 13.8127
546.567 11.4515
546.587 13.6961
546.612 21.8573
546.663 43.8074
546.713 58.6191
546.764 62.5607
546.815 58.5569
546.929 41.3686
547.042 28.3176
547.141 21.6127
547.239 17.8917
547.338 16.8537
547.387 17.9620
547.436 21.3278
547.482 26.8487
547.505 28.9661
547.528 29.1361
547.620 20.3281
547.656 18.1443
547.692 16.8381
547.764 15.7593
547.907 16.7277
548.051 20.5390
548.195 27.2756
548.328 34.6715
548.460 36.5315
548.502 34.2727
548.544 29.3231
548.573 22.7170
548.601 13.0986
548.615 11.1763
548.629 13.2088
548.657 19.0037
548.674 20.5539
548.691 21.0288
548.725 20.4574
548.770 18.6256
548.859 14.9093
548.947 12.0617
549.124 8.91403
549.300 8.55429
549.389 9.60055
549.477 11.8072
549.582 15.4681
549.687 15.8601
549.896 7.83177
550.021 5.91969
550.146 5.83152
550.537 9.37988
550.725 7.98173
550.819 7.04434
550.914 6.44721
550.927 6.42505
550.960 6.48448
550.992 6.74892
551.058 7.92652
551.130 9.21362
551.202 9.52980
551.302 9.45780
551.402 9.30400
551.470 8.45039
551.538 7.18898
551.603 7.24603
551.674 8.34178
551.741 9.61706
551.928 11.6760
552.028 10.6332
552.115 9.23209
552.284 6.84653
552.453 5.44406
552.566 5.04402
552.680 5.10962
552.793 5.81739
552.906 7.49525
553.045 10.6352
553.114 11.7358
553.148 12.0480
553.183 12.3514
553.207 12.7273
553.231 13.5035
553.255 15.2424
553.268 16.8606
553.280 19.3217
553.303 26.8522
553.315 28.5102
553.327 25.0780
553.351 14.7022
553.362 11.7701
553.374 9.95585
553.396 8.13745
553.417 7.19044
553.439 6.61099
553.460 6.21062
553.503 5.65795
553.546 5.27214
553.589 4.97570
553.632 4.73793
553.719 4.38273
553.805 4.14001
553.977 3.87637
554.150 3.81983
554.494 4.22317
554.839 5.50370
555.068 6.64830
555.182 6.88467
555.239 6.87360
555.268 6.86633
555.296 6.90744
555.313 6.99570
555.329 7.19404
555.346 7.62106
555.363 8.50702
555.380 10.0123
555.388 10.6762
555.397 10.8680
555.430 8.44038
555.450 7.42679
555.471 6.85937
555.491 6.50807
555.511 6.26800
555.551 5.95415
555.591 5.75551
555.672 5.54031
555.752 5.48884
555.946 5.88917
556.140 7.05905
556.333 9.35472
556.527 13.3550
556.702 17.1532
556.790 17.2035
556.877 15.3269
557.052 9.75860
557.227 6.43053
557.390 5.28666
557.553 5.21991
557.716 5.88095
557.879 7.15272
558.086 9.17571
558.292 9.72626
558.498 8.41940
558.704 8.30652
558.892 10.5320
559.080 15.7272
559.280 24.3660
559.479 29.9588
559.668 27.5327
559.878 19.8764
560.047 15.3732
560.079 15.1657
560.166 15.4168
560.253 16.4284
560.426 18.7383
560.553 19.1088
560.790 16.6290
560.909 15.6936
561.027 16.5266
561.081 17.9594
561.134 20.2621
561.198 23.3338
561.262 21.7710
561.292 17.3984
561.322 12.7072
561.353 10.6661
561.398 10.3344
561.444 9.58985
561.510 7.98143
561.568 6.77844
561.626 5.86015
561.742 4.63898
561.857 3.89720
561.973 3.41185
562.205 2.84152
562.436 2.55730
562.899 2.42206
563.131 2.46792
563.247 2.53254
563.305 2.66185
563.363 3.09429
563.418 4.26287
563.473 6.03614
563.528 6.82843
563.583 6.77056
563.679 6.61740
563.775 6.86880
563.968 8.43811
564.161 11.7217
564.354 17.6161
564.527 23.6560
564.613 24.3903
564.699 22.3984
564.829 16.7029
564.936 12.6688
565.043 10.2574
565.146 9.40406
565.198 9.60327
565.249 10.5682
565.288 12.3223
565.327 15.8416
565.375 24.1057
565.399 28.9662
565.423 31.9600
565.471 29.0357
565.519 22.6136
565.557 19.0167
565.594 16.6475
565.669 14.1012
565.753 12.9974
565.837 12.8017
566.005 13.7244
566.188 14.5786
566.370 11.8670
566.553 7.70745
566.644 6.80206
566.735 6.97406
566.819 8.13929
566.903 10.4003
567.071 18.8815
567.219 27.8290
567.367 27.5920
567.465 25.3361
567.531 25.7538
567.597 23.5088
567.663 16.2995
567.730 10.2485
567.757 9.00600
567.785 8.86402
567.808 9.79896
567.830 11.8558
567.875 18.6867
567.920 24.3742
567.965 25.0768
568.010 22.9725
568.055 20.4289
568.145 16.5556
568.217 14.6863
568.290 13.6146
568.435 13.1746
568.579 14.6549
568.724 18.1459
568.796 20.5732
568.867 23.2641
568.903 24.7049
568.939 26.4366
568.957 27.6648
568.975 29.5047
568.993 32.7086
569.011 38.8305
569.026 47.2429
569.042 51.4282
569.058 44.0947
569.073 35.5309
569.086 31.0652
569.098 28.1903
569.110 26.3484
569.121 24.9849
569.145 23.0239
569.168 21.5535
569.191 20.3129
569.238 18.1798
569.285 16.3484
569.378 13.4373
569.471 11.4278
569.654 9.45536
569.837 9.23580
570.138 10.6700
570.438 10.5228
570.739 8.17427
571.040 6.70277
571.287 6.80175
571.533 8.30782
571.764 10.6694
571.995 11.4839
572.111 11.3025
572.227 11.7567
572.284 12.6286
572.313 13.3781
572.342 14.4769
572.371 16.1829
572.400 19.0693
572.415 21.3843
572.429 24.7376
572.444 29.8744
572.458 37.7127
572.467 44.2197
572.476 51.1343
572.485 56.4845
572.494 57.4458
572.512 47.0409
572.530 35.6122
572.544 30.2305
572.559 27.4041
572.573 26.0694
572.588 25.6422
572.617 26.2947
572.646 28.0466
572.706 32.9621
572.765 36.9756
572.825 36.8990
572.884 32.2072
573.003 19.9428
573.062 15.7903
573.091 14.3687
573.121 13.4875
573.139 13.3722
573.157 13.8429
573.180 15.8354
573.203 18.2530
573.249 16.1444
573.270 15.0445
573.291 14.4295
573.333 14.1821
573.416 16.1269
573.500 20.9059
573.583 28.9979
573.716 45.7355
573.783 49.3754
573.849 46.3944
573.983 31.7246
574.116 20.7531
574.186 17.4121
574.256 15.6252
574.290 15.4877
574.325 16.1932
574.360 18.3953
574.395 23.2472
574.430 30.3573
574.447 32.2726
574.464 31.1231
574.533 16.3172
574.572 12.0277
574.611 9.71803
574.650 8.34335
574.689 7.45287
574.767 6.42135
574.845 5.97348
574.923 6.01664
575.001 6.76940
575.079 9.00484
575.118 11.2462
575.157 14.6762
575.201 19.5850
575.245 22.3262
575.276 21.0995
575.335 15.8554
575.394 12.3799
575.397 12.2383
575.407 11.8320
575.416 11.4421
575.435 10.6964
575.473 9.31104
575.549 7.09557
575.655 5.25273
575.760 4.25805
575.972 3.30925
576.183 2.91746
576.395 2.77797
576.817 2.96323
577.240 3.69328
577.764 5.14680
578.287 5.78614
578.727 5.41315
579.166 5.83264
579.333 6.40469
579.753 7.14335
579.947 7.26346
580.044 7.76358
580.141 8.93557
580.240 11.5645
580.290 13.9935
580.339 17.8385
580.357 19.7473
580.429 30.0909
580.465 34.9540
580.500 36.5188
580.553 32.2362
580.644 21.9633
580.724 16.6235
580.804 13.5726
580.885 11.6931
580.965 10.4744
581.132 9.12023
581.299 8.68658
581.634 9.44602
581.968 12.0534
582.302 16.7793
582.745 25.1507
582.966 27.9780
583.021 28.3672
583.076 28.6505
583.132 28.8860
583.159 29.0292
583.187 29.2467
583.206 29.5024
583.226 29.9437
583.236 30.2945
583.245 30.7955
583.255 31.5331
583.265 32.6240
583.273 33.9353
583.281 35.4733
583.289 36.5375
583.297 35.8181
583.305 33.4488
583.313 31.1233
583.322 29.5346
583.330 28.5965
583.341 27.9089
583.351 27.5478
583.362 27.3436
583.373 27.2200
583.394 27.0811
583.416 27.0064
583.459 26.9369
583.502 26.9466
583.545 27.0531
583.588 27.2815
583.631 27.6211
583.674 27.8759
583.754 23.9954
583.794 18.4192
583.834 15.2930
583.872 14.9359
583.911 15.4308
583.952 16.0569
583.994 16.5698
584.049 17.0346
584.073 17.1602
584.164 17.2390
584.255 16.6876
584.436 13.9837
584.528 12.0727
584.565 11.2180
584.603 10.8474
584.727 9.19378
584.961 7.14136
585.183 6.47001
585.405 7.02546
585.516 8.08249
585.571 8.94177
585.598 9.39168
585.626 9.57651
585.661 8.37384
585.678 7.20725
585.696 6.47154
585.731 6.94216
585.765 8.38241
585.849 12.3579
585.933 17.2896
586.038 24.8706
586.144 30.0078
586.249 28.0408
586.354 22.3612
586.459 17.4021
586.565 14.0935
586.775 10.9196
586.973 10.3361
587.172 11.3612
587.370 14.1063
587.568 18.9230
587.853 27.1865
587.996 28.5212
588.138 26.8469
588.217 25.1489
588.256 24.2414
588.295 23.3698
588.334 22.6188
588.354 22.3465
588.374 22.2115
588.393 22.3414
588.413 23.0426
588.423 23.8329
588.432 25.1817
588.442 27.4832
588.452 31.3488
588.458 34.7765
588.464 38.7590
588.476 43.8056
588.489 38.8365
588.501 31.2904
588.514 26.0649
588.527 23.1111
588.540 21.3169
588.553 20.1497
588.566 19.3158
588.579 18.6901
588.604 17.7747
588.630 17.1089
588.656 16.5810
588.708 15.7646
588.760 15.1459
588.813 14.6778
588.918 14.1049
589.022 13.8976
589.127 13.5753
589.206 12.1523
589.286 8.65408
589.365 5.13561
589.404 4.22270
589.444 3.82849
589.524 3.93580
589.603 4.56090
589.762 6.54340
589.834 7.91272
589.906 9.85154
589.978 12.6919
590.050 16.6503
590.145 21.1064
590.193 20.2062
590.240 16.8251
590.335 9.52810
590.383 7.40146
590.430 6.24133
590.487 5.82839
590.548 6.30953
590.608 7.52156
590.729 10.2915
590.850 10.2731
590.970 8.69428
591.101 7.38119
591.232 6.78210
591.363 6.79772
591.494 7.47470
591.625 9.19152
591.690 10.7629
591.756 13.2117
591.821 17.2335
591.886 24.2929
591.952 37.7964
591.985 49.0066
592.017 64.6702
592.044 80.7651
592.070 97.6804
592.097 110.084
592.123 111.495
592.177 83.7803
592.230 52.6938
592.294 31.2629
592.358 21.0090
592.423 16.0394
592.487 13.8574
592.551 13.6274
592.616 15.5910
592.680 21.5121
592.712 27.3175
592.745 36.0097
592.795 52.0410
592.820 54.1674
592.845 49.0459
592.895 31.3343
592.946 19.6212
592.991 14.0757
593.036 11.0424
593.082 9.30866
593.127 8.29685
593.218 7.42830
593.309 7.41215
593.490 8.98802
593.672 12.8549
593.789 17.0110
593.905 21.8477
593.964 22.5086
594.007 20.3729
594.051 15.4179
594.094 9.21313
594.137 4.34707
594.162 2.62272
594.187 1.61433
594.211 1.15271
594.236 1.07790
594.261 1.25303
594.286 1.57595
594.335 2.41051
594.434 3.99483
594.533 5.02269
594.675 5.65317
594.817 5.71637
595.101 5.28613
595.667 4.48740
596.234 4.33019
596.800 4.91466
597.083 5.68547
597.366 7.20058
597.595 9.42417
597.754 10.8050
597.948 11.1984
598.142 10.2142
598.362 8.36447
598.467 7.65088
598.572 7.27477
598.625 7.30779
598.677 7.61969
598.730 8.48291
598.782 10.5241
598.828 13.6711
598.850 15.3482
598.873 17.1547
598.886 18.6983
598.899 20.9763
598.913 23.5577
598.928 21.7980
598.942 14.9580
598.956 9.87843
598.964 8.26484
598.975 7.02817
598.985 6.33669
599.005 5.70423
599.026 5.50758
599.047 5.50236
599.088 5.82064
599.129 6.59642
599.157 7.58387
599.185 9.37498
599.199 10.8620
599.213 13.0460
599.227 16.3874
599.241 21.5706
599.254 28.6534
599.267 36.1288
599.280 37.8558
599.293 31.2001
599.306 22.5074
599.320 16.1361
599.333 12.1491
599.346 9.71794
599.366 7.57896
599.387 6.47528
599.407 5.86999
599.428 5.53607
599.469 5.27613
599.509 5.29117
599.591 5.72045
599.673 6.52557
599.755 7.75039
599.836 9.54777
600.000 15.2627
600.000 13.0653
682.500 15.1060
765.000 11.1851
872.500 13.7075
990.000 8.72973
1000.00 8.83262
1125.00 10.1188
1250.00 8.20414
1340.00 10.9581
1410.00 7.34554
1470.00 9.41883
1500.00 8.97627
1585.00 7.72235
1735.00 7.78682
1880.00 8.21871
2000.00 7.54859
2107.50 6.94827
2522.50 6.64290
3000.00 6.24479
3120.00 6.14474
3500.00 5.83597
4000.00 5.42969
4475.00 5.04372
5000.00 4.87926
6000.00 4.56601
6250.00 4.48770
7000.00 4.32606
7275.00 4.26679
7775.00 4.16733
8350.00 4.06235
9350.00 3.90279
10000.0 3.82051
11000.0 3.69392
13500.0 3.45704
15000.0 3.35696
17000.0 3.22352
17500.0 3.19016
20000.0 3.07604
22500.0 2.96192
27500.0 2.80994
30000.0 2.75865
32500.0 2.70735
40000.0 2.59702
40000.0 2.59702
40524.7 2.59077
40524.7 2.59077
42500.0 2.56726
45000.0 2.54000
47500.0 2.51483
50000.0 2.49143
52500.0 2.46954
55000.0 2.44895
57500.0 2.42948
60000.0 2.41100
62500.0 2.39344
65000.0 2.37681
67500.0 2.36106
70000.0 2.34617
72500.0 2.33208
75000.0 2.31877
77500.0 2.30619
80000.0 2.29432
82500.0 2.28312
85000.0 2.27256
87500.0 2.26260
90000.0 2.25323
92400.0 2.24476
92500.0 2.24440
92589.0 2.24411
92589.0 2.24411
95000.0 2.23611
97500.0 2.22831
100000 2.22100
110000 2.19680
120000 2.17924
125000 2.17236
130000 2.16650
140000 2.15730
150000 2.15077
155942 2.14809
155942 2.14809
157700 2.14729
160000 2.14625
170000 2.14327
175000 2.14223
180000 2.14145
190000 2.14053
197853 2.14035
197853 2.14035
200000 2.14030
210000 2.14172
220000 2.14390
230000 2.14487
230393 2.14490
230393 2.14490
235000 2.14530
240000 2.14573
250000 2.14634
260000 2.14633
270000 2.14537
280000 2.14326
290000 2.13981
300000 2.13490
300144 2.13479
300194 2.13475
310000 2.12737
313200 2.12406
313521 2.12373
313551 2.12369
316062 2.12110
316062 2.12110
320000 2.11702
322138 2.11446
322138 2.11446
330000 2.10505
340000 2.09243
342155 2.08976
342175 2.08973
350000 2.08000
355331 2.07341
355332 2.07341
360000 2.06763
370000 2.05514
380000 2.04301
380640 2.04228
380641 2.04228
390000 2.03165
399321 2.02210
399321 2.02210
400000 2.02140
400275 2.02114
400325 2.02110
410000 2.01208
412879 2.00955
412880 2.00955
417600 2.00541
417600 2.00541
420000 2.00330
430000 1.99499
433870 1.99193
433870 1.99193
440000 1.98710
450000 1.97959
457974 1.97387
457974 1.97387
460000 1.97242
470000 1.96556
480000 1.95897
490000 1.95262
499151 1.94702
499151 1.94702
500000 1.94650
505981 1.94318
505981 1.94318
519941 1.93541
519941 1.93541
524259 1.93301
524260 1.93301
525000 1.93260
548966 1.92114
548966 1.92114
550000 1.92064
563930 1.91480
563930 1.91480
574476 1.91038
574476 1.91038
575000 1.91016
577489 1.90923
577489 1.90923
599785 1.90088
599785 1.90088
600000 1.90080
612640 1.89774
612640 1.89774
622684 1.89531
622684 1.89531
625000 1.89475
637949 1.89331
637949 1.89331
648796 1.89210
648796 1.89210
650000 1.89197
662857 1.89066
662857 1.89066
675000 1.88942
700000 1.88470
703030 1.88346
703030 1.88346
725000 1.87445
750000 1.86048
775000 1.84770
800000 1.84000
825000 1.83669
850000 1.83476
852675 1.83468
852675 1.83468
875000 1.83402
900000 1.83430
925000 1.83508
950000 1.83603
974198 1.83726
974199 1.83726
975000 1.83730
1.00000E+06 1.83900
1.02823E+06 1.84112
1.02823E+06 1.84112
1.05000E+06 1.84276
1.09000E+06 1.84588
1.09000E+06 1.84588
1.09000E+06 1.84588
1.10000E+06 1.84666
1.15000E+06 1.85121
1.20000E+06 1.85683
1.25000E+06 1.86380
1.30000E+06 1.87155
1.31788E+06 1.87431
1.31788E+06 1.87431
1.35000E+06 1.87927
1.40000E+06 1.88684
1.45000E+06 1.89417
1.49263E+06 1.90017
1.49263E+06 1.90017
1.50000E+06 1.90120
1.55000E+06 1.90795
1.60000E+06 1.91450
1.65000E+06 1.92084
1.70000E+06 1.92697
1.75000E+06 1.93289
1.80000E+06 1.93859
1.85000E+06 1.94408
1.90000E+06 1.94936
1.95000E+06 1.95444
2.00000E+06 1.95930
2.10000E+06 1.96280
2.20000E+06 1.95717
2.30000E+06 1.94616
2.40000E+06 1.93269
2.50000E+06 1.91900
2.60000E+06 1.90588
2.70000E+06 1.89261
2.80000E+06 1.87883
2.90000E+06 1.86426
3.00000E+06 1.84870
3.10000E+06 1.83285
3.20000E+06 1.81721
3.30000E+06 1.80147
3.40000E+06 1.78533
3.50000E+06 1.76860
3.60000E+06 1.75182
3.70000E+06 1.73565
3.80000E+06 1.72005
3.90000E+06 1.70497
4.00000E+06 1.69040
4.10000E+06 1.67613
4.20000E+06 1.66215
4.30000E+06 1.64867
4.40000E+06 1.63593
4.50000E+06 1.62416
4.60000E+06 1.61277
4.70000E+06 1.60114
4.80000E+06 1.58950
4.90000E+06 1.57808
5.00000E+06 1.56710
5.10000E+06 1.55676
5.20000E+06 1.54701
5.30000E+06 1.53773
5.40000E+06 1.52880
5.50000E+06 1.52010
5.60000E+06 1.52118
5.70000E+06 1.53829
5.78443E+06 1.56231
5.78443E+06 1.56231
5.80000E+06 1.56674
5.90000E+06 1.60266
6.00000E+06 1.64260
6.10000E+06 1.69351
6.20000E+06 1.75858
6.30000E+06 1.82799
6.40000E+06 1.89024
6.50000E+06 1.93440
6.60000E+06 1.96480
6.70000E+06 1.99393
6.75000E+06 2.00852
6.80000E+06 2.02264
6.90000E+06 2.04791
7.00000E+06 2.07030
7.10000E+06 2.09215
7.20000E+06 2.11418
7.30000E+06 2.13555
7.40000E+06 2.15687
7.50000E+06 2.17750
7.60000E+06 2.19691
7.70000E+06 2.21636
7.80000E+06 2.23665
7.90000E+06 2.25375
8.00000E+06 2.26930
8.10000E+06 2.28304
8.20000E+06 2.29198
8.30000E+06 2.29568
8.40000E+06 2.29805
8.50000E+06 2.29820
8.60000E+06 2.29645
8.70000E+06 2.29448
8.80000E+06 2.29245
8.90000E+06 2.29000
9.00000E+06 2.28700
9.10000E+06 2.28387
9.20000E+06 2.28100
9.30000E+06 2.27825
9.40000E+06 2.27549
9.50000E+06 2.27257
9.60000E+06 2.26963
9.70000E+06 2.26673
9.80000E+06 2.26364
9.90000E+06 2.26014
1.00000E+07 2.25600
1.01000E+07 2.25143
1.02000E+07 2.24673
1.03000E+07 2.24185
1.04000E+07 2.23671
1.05000E+07 2.23125
1.06000E+07 2.22564
1.07000E+07 2.22016
1.08000E+07 2.21487
1.09000E+07 2.20980
1.10000E+07 2.20500
1.11000E+07 2.20022
1.12000E+07 2.19534
1.13000E+07 2.19056
1.14000E+07 2.18605
1.15000E+07 2.18198
1.16000E+07 2.17859
1.17000E+07 2.17605
1.18000E+07 2.17453
1.19000E+07 2.17413
1.20000E+07 2.17500
1.21000E+07 2.17753
1.22000E+07 2.18186
1.23000E+07 2.18768
1.24000E+07 2.19472
1.25000E+07 2.20271
1.26000E+07 2.21135
1.27000E+07 2.22037
1.28000E+07 2.22956
1.29000E+07 2.23867
1.30000E+07 2.24750
1.30889E+07 2.25523
1.30889E+07 2.25523
1.31000E+07 2.25620
1.32000E+07 2.26502
1.33000E+07 2.27395
1.34000E+07 2.28296
1.35000E+07 2.29201
1.36000E+07 2.30087
1.37000E+07 2.30946
1.38000E+07 2.31791
1.39000E+07 2.32637
1.40000E+07 2.33500
1.41000E+07 2.34342
1.42000E+07 2.35123
1.43000E+07 2.35857
1.44000E+07 2.36557
1.45000E+07 2.37237
1.46000E+07 2.37907
1.47000E+07 2.38574
1.48000E+07 2.39242
1.49000E+07 2.39916
1.50000E+07 2.40600
1.52500E+07 2.42337
1.55000E+07 2.43844
1.57500E+07 2.44715
1.60000E+07 2.44500
1.62500E+07 2.43528
1.65000E+07 2.42432
1.67500E+07 2.41253
1.70000E+07 2.40031
1.72500E+07 2.38819
1.75000E+07 2.37638
1.77500E+07 2.36619
1.80000E+07 2.35530
1.82500E+07 2.34503
1.85000E+07 2.33679
1.87500E+07 2.32795
1.89857E+07 2.31954
1.89857E+07 2.31954
1.90000E+07 2.31903
1.92500E+07 2.31033
1.95000E+07 2.30203
1.97500E+07 2.29383
2.00000E+07 2.28580
2.05000E+07 2.27143
2.10000E+07 2.25975
2.15000E+07 2.25027
2.20000E+07 2.24280
2.25000E+07 2.24606
2.30000E+07 2.25997
2.35000E+07 2.27341
2.40000E+07 2.27630
2.45000E+07 2.26791
2.50000E+07 2.25682
2.55000E+07 2.24635
2.60000E+07 2.23930
2.65000E+07 2.23506
2.70000E+07 2.23079
2.75000E+07 2.22674
2.80000E+07 2.22250
2.85000E+07 2.21819
2.90000E+07 2.21429
2.95000E+07 2.21029
3.00000E+07 2.20630
